2θ 	Intensity,cps	2θ Intensity,cps
20	1100.663	20	1077.893
20.01	1024.61	20.01	846.5528
20.02	1072.636	20.02	1116.026
20.03	1078.797	20.03	1212.63
20.04	1163.757	20.04	757.5757
20.05	1060.193	20.05	976.205
20.06	1002.991	20.06	1212.63
20.07	1099.552	20.07	1080.435
20.08	1044.456	20.08	772.829
20.09	1044.508	20.09	892.3124
20.1	1158.69	20.1	986.3738
20.11	1005.613	20.11	1103.315
20.12	1085.643	20.12	1118.568
20.13	1125.64	20.13	1154.159
20.14	1145.394	20.14	1177.039
20.15	1178.982	20.15	1179.581
20.16	981.8698	20.16	1410.921
20.17	1106.382	20.17	1266.016
20.18	1079.494	20.18	1222.798
20.19	1103.374	20.19	1309.233
20.2	1092.131	20.2	1197.376
20.21	1171.98	20.21	1179.581
20.22	1103.414	20.22	1232.967
20.23	523.9253	20.23	1258.389
20.24	590.4954	20.24	1100.773
20.25	796.0454	20.25	1327.029
20.26	1059.683	20.26	1504.983
20.27	1173.32	20.27	1205.003
20.28	1056.924	20.28	1248.22
20.29	1190.777	20.29	887.228
20.3	1088.774	20.3	905.0234
20.31	1086.593	20.31	1182.123
20.32	1165.017	20.32	1006.711
20.33	1289.916	20.33	922.8188
20.34	1240.837	20.34	1342.282
20.35	977.5496	20.35	1278.727
20.36	1060.403	20.36	1332.113
20.37	1172.879	20.37	1057.555
20.38	1095.847	20.38	1034.676
20.39	1156.647	20.39	1268.558
20.4	1211.563	20.4	1070.266
20.41	1209.2	20.41	1410.921
20.42	1066.949	20.42	1037.218
20.43	1134.838	20.43	1065.182
20.44	1357.838	20.44	1309.233
20.45	1165.044	20.45	1253.305
20.46	1200.249	20.46	1151.617
20.47	1156.656	20.47	1370.246
20.48	1248.023	20.48	976.205
20.49	1234.968	20.49	1306.691
20.5	1234.551	20.5	1042.302
20.51	1218.293	20.51	1085.52
20.52	1358.944	20.52	1151.617
20.53	1280.292	20.53	1426.174
20.54	1297.835	20.54	1375.331
20.55	1182.828	20.55	1718.527
20.56	1195.571	20.56	1075.351
20.57	1043.367	20.57	1136.364
20.58	1147.378	20.58	1159.244
20.59	1251.009	20.59	1088.062
20.6	1181.309	20.6	1131.279
20.61	1275.298	20.61	1281.269
20.62	1232.7	20.62	1088.062
20.63	1092.368	20.63	1021.965
20.64	1186.593	20.64	1301.607
20.65	1175.001	20.65	1021.965
20.66	1285.857	20.66	1278.727
20.67	1422.29	20.67	1072.809
20.68	1174.736	20.68	966.0362
20.69	1195.479	20.69	1169.412
20.7	1212.712	20.7	1164.328
20.71	1250.681	20.71	1034.676
20.72	1018.233	20.72	1177.039
20.73	1202.844	20.73	1235.51
20.74	1139.565	20.74	1187.208
20.75	1136.078	20.75	983.8316
20.76	1154.477	20.76	1205.003
20.77	1138.887	20.77	1116.026
20.78	1097.362	20.78	973.6628
20.79	1182.088	20.79	1062.64
20.8	1103.821	20.8	1166.87
20.81	1168.683	20.81	1393.126
20.82	1273.412	20.82	1423.632
20.83	1301.513	20.83	1103.315
20.84	1163.186	20.84	1004.169
20.85	1209.059	20.85	1245.678
20.86	1277.489	20.86	1156.701
20.87	1184.06	20.87	925.361
20.88	1259.602	20.88	1232.967
20.89	1268.976	20.89	1441.428
20.9	1097.94	20.9	1232.967
20.91	1223.029	20.91	1288.896
20.92	1155.784	20.92	1194.834
20.93	1103.606	20.93	1304.149
20.94	1265.422	20.94	1499.898
20.95	1143.762	20.95	1151.617
20.96	1338.704	20.96	1276.185
20.97	1278.418	20.97	1070.266
20.98	1262.676	20.98	1339.74
20.99	1366.259	20.99	902.4811
21	1159.971	21	1474.476
21.01	1211.493	21.01	1281.269
21.02	1199.038	21.02	1187.208
21.03	1202.986	21.03	1197.376
21.04	1227.996	21.04	1235.51
21.05	1274.741	21.05	1169.412
21.06	1260.158	21.06	1052.471
21.07	1386.272	21.07	1019.422
21.08	1297.286	21.08	1266.016
21.09	1128.712	21.09	1123.653
21.1	1206.251	21.1	973.6628
21.11	1183.939	21.11	1205.003
21.12	1121.552	21.12	1258.389
21.13	1300.083	21.13	1314.318
21.14	1211.065	21.14	1055.013
21.15	1153.278	21.15	1390.584
21.16	1206.075	21.16	1372.788
21.17	1346.18	21.17	1220.256
21.18	1321.874	21.18	1253.305
21.19	1293.954	21.19	1100.773
21.2	1308.108	21.2	1095.688
21.21	1104.059	21.21	1454.139
21.22	1104.722	21.22	1558.369
21.23	1127.282	21.23	1281.269
21.24	1102.329	21.24	938.072
21.25	1204.898	21.25	1161.786
21.26	1201.785	21.26	1271.1
21.27	1309.995	21.27	1192.292
21.28	1292.45	21.28	1126.195
21.29	1180.023	21.29	1118.568
21.3	1285.66	21.3	1189.75
21.31	1327.209	21.31	1271.1
21.32	1247.416	21.32	1281.269
21.33	1456.803	21.33	1299.064
21.34	1267.683	21.34	1515.151
21.35	1327.714	21.35	1438.885
21.36	1215.506	21.36	996.5426
21.37	1198.092	21.37	1291.438
21.38	1222.336	21.38	968.5784
21.39	1211.449	21.39	1199.919
21.4	1347.399	21.4	1329.571
21.41	1274.429	21.41	1502.44
21.42	1148.204	21.42	1347.366
21.43	1229.532	21.43	1161.786
21.44	1222.451	21.44	1388.042
21.45	1349.594	21.45	1281.269
21.46	1229.581	21.46	1225.341
21.47	1349.277	21.47	1131.279
21.48	1322.75	21.48	1189.75
21.49	1246.353	21.49	1466.85
21.5	1275.07	21.5	1309.233
21.51	1277.962	21.51	1138.906
21.52	1237.707	21.52	1474.476
21.53	1434.227	21.53	1471.934
21.54	1381.107	21.54	1446.512
21.55	1225.448	21.55	1248.22
21.56	1223.877	21.56	1166.87
21.57	1185.661	21.57	1408.379
21.58	1221.47	21.58	945.6986
21.59	1163.532	21.59	1266.016
21.6	1276.629	21.6	1446.512
21.61	1294.635	21.61	1304.149
21.62	1266.31	21.62	1388.042
21.63	1442.604	21.63	1136.364
21.64	1408.67	21.64	1418.548
21.65	1362.269	21.65	1321.944
21.66	1234.979	21.66	1354.993
21.67	1124.42	21.67	1273.642
21.68	1374.479	21.68	1367.704
21.69	1369.011	21.69	1293.98
21.7	1245.653	21.7	1548.2
21.71	1266.527	21.71	1230.425
21.72	1475.95	21.72	1357.535
21.73	1299.944	21.73	1098.231
21.74	1389.762	21.74	1431.259
21.75	1309.982	21.75	1128.737
21.76	1210.942	21.76	1166.87
21.77	1350.268	21.77	1357.535
21.78	1338.736	21.78	1009.254
21.79	1251.2	21.79	1382.957
21.8	1320.076	21.8	1248.22
21.81	1231.384	21.81	1149.075
21.82	1478.613	21.82	1299.064
21.83	1202.351	21.83	1179.581
21.84	1372.715	21.84	1088.062
21.85	1289.058	21.85	1238.052
21.86	1123.912	21.86	1349.908
21.87	1295.456	21.87	1220.256
21.88	1419.42	21.88	1342.282
21.89	1284.83	21.89	1451.597
21.9	1394.949	21.9	1197.376
21.91	1184.144	21.91	1443.97
21.92	1262.454	21.92	1217.714
21.93	1276.988	21.93	1250.763
21.94	1395.012	21.94	1243.136
21.95	1410.115	21.95	1116.026
21.96	1386.889	21.96	1222.798
21.97	1374.866	21.97	1205.003
21.98	1285.13	21.98	1128.737
21.99	1186.945	21.99	1421.09
22	1277.989	22	1304.149
22.01	1187.857	22.01	1174.497
22.02	1334.19	22.02	1372.788
22.03	1447.955	22.03	1616.84
22.04	1342.335	22.04	1487.187
22.05	1290.313	22.05	1464.308
22.06	1377.365	22.06	1375.331
22.07	1301.063	22.07	1220.256
22.08	1295.02	22.08	1182.123
22.09	1197.542	22.09	1161.786
22.1	1365.456	22.1	1354.993
22.11	1367.622	22.11	1311.776
22.12	1328.476	22.12	1443.97
22.13	1300.682	22.13	1143.99
22.14	1299.415	22.14	1151.617
22.15	1255.556	22.15	1212.63
22.16	1256.185	22.16	1433.801
22.17	1533.535	22.17	1571.08
22.18	1463.238	22.18	1426.174
22.19	1279.835	22.19	1171.954
22.2	1313.318	22.2	1388.042
22.21	1184.793	22.21	1370.246
22.22	1347.071	22.22	1309.233
22.23	1230.589	22.23	1835.469
22.24	1280.559	22.24	1591.417
22.25	1245.057	22.25	1278.727
22.26	1185.56	22.26	1382.957
22.27	1122.021	22.27	1260.932
22.28	1353.609	22.28	1471.934
22.29	1313.692	22.29	1558.369
22.3	1245.065	22.3	1316.86
22.31	1377.404	22.31	1121.11
22.32	1327.804	22.32	1276.185
22.33	1250.037	22.33	1052.471
22.34	1427.572	22.34	1301.607
22.35	1394.465	22.35	1128.737
22.36	1389.81	22.36	1062.64
22.37	1240.457	22.37	1342.282
22.38	1289.516	22.38	1187.208
22.39	1361.95	22.39	1194.834
22.4	1547.495	22.4	1271.1
22.41	1438.377	22.41	1370.246
22.42	1420.32	22.42	1525.32
22.43	1293.219	22.43	1207.545
22.44	1290.99	22.44	1426.174
22.45	1432.064	22.45	1553.284
22.46	1541.264	22.46	1192.292
22.47	1432.416	22.47	1423.632
22.48	1419.935	22.48	1179.581
22.49	1271.87	22.49	1192.292
22.5	1306.507	22.5	1538.031
22.51	1389.55	22.51	1443.97
22.52	1271.891	22.52	1405.837
22.53	1356.862	22.53	1065.182
22.54	1371.478	22.54	1337.197
22.55	1345.812	22.55	1329.571
22.56	1359.515	22.56	1250.763
22.57	1309.358	22.57	1365.162
22.58	1371.063	22.58	1293.98
22.59	1271.734	22.59	1583.791
22.6	1244.822	22.6	1377.873
22.61	1141.525	22.61	1449.054
22.62	1301.608	22.62	1677.852
22.63	1375.198	22.63	1352.451
22.64	1506.064	22.64	1337.197
22.65	1499.221	22.65	1484.645
22.66	1338.514	22.66	1593.96
22.67	1332.635	22.67	1428.717
22.68	1325.909	22.68	1545.658
22.69	1375.64	22.69	1138.906
22.7	1433.751	22.7	1238.052
22.71	1285.854	22.71	1599.044
22.72	1344.016	22.72	1362.62
22.73	1287.915	22.73	1232.967
22.74	1298.944	22.74	1380.415
22.75	1408.499	22.75	1260.932
22.76	1366.936	22.76	1382.957
22.77	1328.219	22.77	1314.318
22.78	1438.354	22.78	1359.442
22.79	1390.173	22.79	1327.664
22.8	1443.499	22.8	1161.786
22.81	1543.829	22.81	1281.269
22.82	1614.074	22.82	1497.356
22.83	1412.217	22.83	1240.594
22.84	1444.377	22.84	1360.077
22.85	1386.222	22.85	1276.185
22.86	1344.801	22.86	1332.113
22.87	1347.782	22.87	1288.896
22.88	1257.512	22.88	1316.86
22.89	1376.924	22.89	1393.126
22.9	1334.029	22.9	1403.295
22.91	1481.078	22.91	1456.681
22.92	1298.383	22.92	1464.308
22.93	1348.997	22.93	1482.103
22.94	1322.128	22.94	1431.259
22.95	1369.67	22.95	1245.678
22.96	1418.938	22.96	1255.847
22.97	1325.815	22.97	1367.704
22.98	1300.51	22.98	1560.911
22.99	1355.227	22.99	1497.356
23	1393.587	23	1199.919
23.01	1427.665	23.01	1301.607
23.02	1338.073	23.02	1286.354
23.03	1451.268	23.03	1494.814
23.04	1434.867	23.04	1454.139
23.05	1297.255	23.05	1515.151
23.06	1404.133	23.06	1276.185
23.07	1272.097	23.07	1187.208
23.08	1519.699	23.08	1606.671
23.09	1370.483	23.09	1525.32
23.1	1429.562	23.1	1451.597
23.11	1454.914	23.11	1372.788
23.12	1425.643	23.12	1540.574
23.13	1442.163	23.13	1530.405
23.14	1394.95	23.14	1400.753
23.15	1384.459	23.15	1293.98
23.16	1380.657	23.16	1530.405
23.17	1513.047	23.17	1281.269
23.18	1477.797	23.18	1240.594
23.19	1363.334	23.19	1187.208
23.2	1413.722	23.2	1428.717
23.21	1396.696	23.21	1250.763
23.22	1305.407	23.22	1433.801
23.23	1533.089	23.23	1588.875
23.24	1478.723	23.24	1250.763
23.25	1425.42	23.25	1413.463
23.26	1366.115	23.26	1230.425
23.27	1458.123	23.27	1395.668
23.28	1416.361	23.28	1334.655
23.29	1402.27	23.29	1517.694
23.3	1296.722	23.3	1225.341
23.31	1622.002	23.31	1357.535
23.32	1411.154	23.32	1471.934
23.33	1466.807	23.33	1360.077
23.34	1451.278	23.34	1271.1
23.35	1407.024	23.35	1385.499
23.36	1415.317	23.36	1225.341
23.37	1422.588	23.37	1395.668
23.38	1337.423	23.38	1263.474
23.39	1333.46	23.39	1258.389
23.4	1437.22	23.4	1403.295
23.41	1416.125	23.41	1565.995
23.42	1390.715	23.42	1532.947
23.43	1436.521	23.43	1418.548
23.44	1457.411	23.44	1225.341
23.45	1501.65	23.45	1342.282
23.46	1456.49	23.46	1433.801
23.47	1404.758	23.47	1319.402
23.48	1328.163	23.48	1354.993
23.49	1352.617	23.49	1469.392
23.5	1317.55	23.5	1182.123
23.51	1445.34	23.51	1370.246
23.52	1451.945	23.52	1474.476
23.53	1297.527	23.53	1377.873
23.54	1358.609	23.54	1309.233
23.55	1492.261	23.55	1461.765
23.56	1419.737	23.56	1377.873
23.57	1381.119	23.57	1291.438
23.58	1517.11	23.58	1370.246
23.59	1547.413	23.59	1347.366
23.6	1301.644	23.6	1466.85
23.61	1453.713	23.61	1324.487
23.62	1350.494	23.62	1443.97
23.63	1280.271	23.63	1571.08
23.64	1352.995	23.64	1426.174
23.65	1406.946	23.65	1474.476
23.66	1359.726	23.66	1609.213
23.67	1306.44	23.67	1271.1
23.68	1332.377	23.68	1220.256
23.69	1372.528	23.69	1504.983
23.7	1466.88	23.7	1474.476
23.71	1429.885	23.71	1446.512
23.72	1278.815	23.72	1319.402
23.73	1415.987	23.73	1443.97
23.74	1435.67	23.74	1090.604
23.75	1320.595	23.75	1464.308
23.76	1465.159	23.76	1454.139
23.77	1329.965	23.77	1248.22
23.78	1254.91	23.78	1558.369
23.79	1335.126	23.79	1499.898
23.8	1365.595	23.8	1235.51
23.81	1546.136	23.81	1431.259
23.82	1565.161	23.82	1410.921
23.83	1342.798	23.83	1456.681
23.84	1483.599	23.84	1410.921
23.85	1365.185	23.85	1332.113
23.86	1182.619	23.86	1464.308
23.87	1223.043	23.87	1271.1
23.88	1450.959	23.88	1418.548
23.89	1384.381	23.89	1390.584
23.9	1535.576	23.9	1400.753
23.91	1247.791	23.91	1367.704
23.92	1373.993	23.92	1469.392
23.93	1354.683	23.93	1555.827
23.94	1336.063	23.94	1263.474
23.95	1392.934	23.95	1433.801
23.96	1366.688	23.96	1464.308
23.97	1214.005	23.97	1428.717
23.98	1378.516	23.98	1441.428
23.99	1433.086	23.99	1532.947
24	1488.143	24	1260.932
24.01	1488.432	24.01	1754.118
24.02	1448.497	24.02	1243.136
24.03	1333.59	24.03	1194.834
24.04	1296.879	24.04	1271.1
24.05	1352.867	24.05	1548.2
24.06	1269.407	24.06	1461.765
24.07	1223.662	24.07	1515.151
24.08	1374.716	24.08	1276.185
24.09	1267.496	24.09	1347.366
24.1	1368.492	24.1	1398.21
24.11	1404.439	24.11	1296.522
24.12	1307.037	24.12	1441.428
24.13	1221.29	24.13	1268.558
24.14	1419.355	24.14	1293.98
24.15	1401.563	24.15	1390.584
24.16	1289.707	24.16	1278.727
24.17	1453.459	24.17	1082.977
24.18	1456.743	24.18	1217.714
24.19	1373.427	24.19	1543.116
24.2	1381.075	24.2	1319.402
24.21	1385.446	24.21	1388.042
24.22	1438.816	24.22	1403.295
24.23	1368.674	24.23	1421.09
24.24	1556.34	24.24	1565.995
24.25	1559.066	24.25	1621.924
24.26	1395.92	24.26	1449.054
24.27	1248.747	24.27	1548.2
24.28	1356.109	24.28	1423.632
24.29	1418.357	24.29	1171.954
24.3	1383.825	24.3	1565.995
24.31	1324.942	24.31	1715.985
24.32	1318.347	24.32	1390.584
24.33	1390.363	24.33	1324.487
24.34	1403.895	24.34	1393.126
24.35	1320.898	24.35	1171.954
24.36	1268.242	24.36	1370.246
24.37	1413.053	24.37	1207.545
24.38	1253.605	24.38	1695.648
24.39	1206.467	24.39	1484.645
24.4	1355.796	24.4	1532.947
24.41	1422.685	24.41	1456.681
24.42	1483.695	24.42	1461.765
24.43	1448.511	24.43	1321.944
24.44	1281.738	24.44	1586.333
24.45	1329.571	24.45	1769.372
24.46	1466.328	24.46	1576.164
24.47	1270.017	24.47	1634.635
24.48	1420.046	24.48	1416.006
24.49	1442.278	24.49	1240.594
24.5	1410.646	24.5	1451.597
24.51	1408.283	24.51	1253.305
24.52	1337.098	24.52	1558.369
24.53	1420.552	24.53	1339.74
24.54	1456.688	24.54	1337.197
24.55	1317.892	24.55	1360.077
24.56	1337.39	24.56	1629.55
24.57	1349.173	24.57	1347.366
24.58	1376.818	24.58	1479.561
24.59	1340.731	24.59	1309.233
24.6	1455.702	24.6	1441.428
24.61	1600.008	24.61	1339.74
24.62	1446.622	24.62	1286.354
24.63	1338.677	24.63	1619.382
24.64	1289.909	24.64	1400.753
24.65	1465.036	24.65	1736.323
24.66	1481.52	24.66	1629.55
24.67	1367.23	24.67	1499.898
24.68	1423.12	24.68	1538.031
24.69	1417.541	24.69	1438.885
24.7	1391.254	24.7	1548.2
24.71	1347.953	24.71	1477.018
24.72	1366.97	24.72	1784.625
24.73	1467.208	24.73	1759.203
24.74	1323.046	24.74	1517.694
24.75	1405.967	24.75	1377.873
24.76	1278.668	24.76	1416.006
24.77	1188.578	24.77	1423.632
24.78	1305.288	24.78	1548.2
24.79	1396.278	24.79	1174.497
24.8	1362.057	24.8	1296.522
24.81	1468.239	24.81	1393.126
24.82	1323.771	24.82	1243.136
24.83	1425.257	24.83	1433.801
24.84	1444.671	24.84	1250.763
24.85	1475.835	24.85	1398.21
24.86	1364.208	24.86	1352.451
24.87	1436.718	24.87	1217.714
24.88	1344.324	24.88	1698.19
24.89	1481.857	24.89	1288.896
24.9	1287.828	24.9	1166.87
24.91	1440.72	24.91	1248.22
24.92	1468.195	24.92	1136.364
24.93	1511.058	24.93	1349.908
24.94	1474.729	24.94	1614.297
24.95	1367.752	24.95	1273.642
24.96	1287.646	24.96	1558.369
24.97	1418.008	24.97	1410.921
24.98	1447.529	24.98	1382.957
24.99	1394.868	24.99	1436.343
25	1430.216	25	1586.333
25.01	1437.87	25.01	1482.103
25.02	1359.296	25.02	1588.875
25.03	1325.487	25.03	1464.308
25.04	1464.858	25.04	1337.197
25.05	1521.842	25.05	1393.126
25.06	1277.038	25.06	1581.249
25.07	1308.33	25.07	1179.581
25.08	1242.168	25.08	1189.75
25.09	1391.718	25.09	1039.76
25.1	1255.181	25.1	1248.22
25.11	1242.813	25.11	1477.018
25.12	1276.108	25.12	1487.187
25.13	1405.152	25.13	1413.463
25.14	1378.247	25.14	1403.295
25.15	1196.313	25.15	1492.272
25.16	1465.922	25.16	1647.346
25.17	1415.8	25.17	1632.093
25.18	1373.06	25.18	1431.259
25.19	1330.319	25.19	1474.476
25.2	1354.195	25.2	1520.236
25.21	1372.294	25.21	1507.525
25.22	1451.256	25.22	1309.233
25.23	1278.617	25.23	1405.837
25.24	1355.402	25.24	1316.86
25.25	1281.65	25.25	1497.356
25.26	1318.371	25.26	1454.139
25.27	1440.254	25.27	1639.719
25.28	1346.01	25.28	1649.888
25.29	1342.233	25.29	1611.755
25.3	1451.03	25.3	1375.331
25.31	1515.993	25.31	1217.714
25.32	1317.194	25.32	1253.305
25.33	1248.951	25.33	1403.295
25.34	1449.382	25.34	1477.018
25.35	1480.974	25.35	1520.236
25.36	1330.06	25.36	1418.548
25.37	1452.969	25.37	1403.295
25.38	1401.858	25.38	1492.272
25.39	1480.209	25.39	1327.029
25.4	1450.923	25.4	1301.607
25.41	1380.349	25.41	1337.197
25.42	1361.017	25.42	1520.236
25.43	1276.194	25.43	1492.272
25.44	1427.86	25.44	1555.827
25.45	1432.515	25.45	1263.474
25.46	1317.713	25.46	1416.006
25.47	1357.765	25.47	1230.425
25.48	1397.561	25.48	1324.487
25.49	1432.819	25.49	1520.236
25.5	1346.932	25.5	1278.727
25.51	1467.771	25.51	1436.343
25.52	1334.175	25.52	1499.898
25.53	1358.252	25.53	1309.233
25.54	1376.187	25.54	1565.995
25.55	1411.385	25.55	1339.74
25.56	1313.32	25.56	1515.151
25.57	1268.365	25.57	1385.499
25.58	1422.156	25.58	1416.006
25.59	1395.121	25.59	1494.814
25.6	1472.042	25.6	1362.62
25.61	1320.583	25.61	1609.213
25.62	1393.397	25.62	1398.21
25.63	1571.323	25.63	1238.052
25.64	1323.577	25.64	1540.574
25.65	1249.006	25.65	1621.924
25.66	1218.567	25.66	1538.031
25.67	1505.369	25.67	1614.297
25.68	1535.749	25.68	1555.827
25.69	1373.252	25.69	1349.908
25.7	1331.203	25.7	1250.763
25.71	1260.944	25.71	1293.98
25.72	1404.834	25.72	1354.993
25.73	1163.796	25.73	1416.006
25.74	1243.534	25.74	1530.405
25.75	1361.334	25.75	1225.341
25.76	1380.578	25.76	1321.944
25.77	1324.109	25.77	1360.077
25.78	1468.716	25.78	1451.597
25.79	1365.096	25.79	1215.172
25.8	1250.971	25.8	1535.489
25.81	1228.434	25.81	1301.607
25.82	1343.143	25.82	1581.249
25.83	1215.867	25.83	1520.236
25.84	1269.117	25.84	1309.233
25.85	1325.561	25.85	1210.087
25.86	1326.034	25.86	1538.031
25.87	1333.848	25.87	1337.197
25.88	1408.635	25.88	1443.97
25.89	1546.986	25.89	1482.103
25.9	1455.369	25.9	1520.236
25.91	1450.405	25.91	1436.343
25.92	1324.846	25.92	1370.246
25.93	1411.766	25.93	1416.006
25.94	1185.183	25.94	1334.655
25.95	1220.67	25.95	1321.944
25.96	1310.785	25.96	1624.466
25.97	1375.48	25.97	1525.32
25.98	1306.852	25.98	1309.233
25.99	1232.557	25.99	1370.246
26	1303.333	26	1560.911
26.01	1270.571	26.01	1283.811
26.02	1164.43	26.02	1454.139
26.03	1331.513	26.03	1360.077
26.04	1401.792	26.04	1324.487
26.05	1420.654	26.05	1215.172
26.06	1204.73	26.06	1449.054
26.07	1274.42	26.07	1769.372
26.08	1293.717	26.08	1578.707
26.09	1288.463	26.09	1456.681
26.1	1358.747	26.1	1604.129
26.11	1301.364	26.11	1698.19
26.12	1205.363	26.12	1352.451
26.13	1291.381	26.13	1497.356
26.14	1452.853	26.14	1436.343
26.15	1309.343	26.15	1299.064
26.16	1107.526	26.16	1530.405
26.17	1205.275	26.17	1601.586
26.18	1314.195	26.18	1606.671
26.19	1647.906	26.19	1215.172
26.2	1276.943	26.2	1301.607
26.21	1340.224	26.21	1517.694
26.22	1405.659	26.22	1599.044
26.23	1357.009	26.23	1232.967
26.24	1493.846	26.24	1482.103
26.25	1411.026	26.25	1632.093
26.26	1201.771	26.26	1522.778
26.27	1255.173	26.27	1416.006
26.28	1388.321	26.28	1332.113
26.29	1505.798	26.29	1339.74
26.3	1373.349	26.3	1591.417
26.31	1268.824	26.31	1377.873
26.32	1275.516	26.32	1466.85
26.33	1408.62	26.33	1306.691
26.34	1469.602	26.34	1726.154
26.35	1378.7	26.35	1362.62
26.36	1304.96	26.36	1372.788
26.37	1326.705	26.37	1614.297
26.38	1298.339	26.38	1487.187
26.39	1418.497	26.39	1446.512
26.4	1470.935	26.4	1301.607
26.41	1163.595	26.41	1299.064
26.42	1131.127	26.42	1408.379
26.43	1316.866	26.43	1601.586
26.44	1249.003	26.44	1609.213
26.45	1242.166	26.45	1215.172
26.46	1283.162	26.46	1443.97
26.47	1411.298	26.47	1377.873
26.48	1298.239	26.48	1433.801
26.49	1263.924	26.49	1283.811
26.5	1257.828	26.5	1438.885
26.51	1351.991	26.51	1321.944
26.52	1278.97	26.52	1426.174
26.53	1218.476	26.53	1568.538
26.54	1384.727	26.54	1550.742
26.55	1349.78	26.55	1634.635
26.56	1370.849	26.56	1487.187
26.57	1434.948	26.57	1464.308
26.58	1520.046	26.58	1304.149
26.59	1346.918	26.59	1423.632
26.6	1363.375	26.6	1550.742
26.61	1420.686	26.61	1530.405
26.62	1322.058	26.62	1614.297
26.63	1279.138	26.63	1502.44
26.64	1248.059	26.64	1395.668
26.65	1309.891	26.65	1721.07
26.66	1279.882	26.66	1609.213
26.67	1218.829	26.67	1568.538
26.68	1377.447	26.68	1405.837
26.69	1268.79	26.69	1222.798
26.7	1289.631	26.7	1306.691
26.71	1309.102	26.71	1410.921
26.72	1375.431	26.72	1459.223
26.73	1345.434	26.73	1660.057
26.74	1362.811	26.74	1403.295
26.75	1278.829	26.75	1273.642
26.76	1312.132	26.76	1314.318
26.77	1383.622	26.77	1321.944
26.78	1316.753	26.78	1535.489
26.79	1326.274	26.79	1459.223
26.8	1336.468	26.8	1479.561
26.81	1326.216	26.81	1324.487
26.82	1331.439	26.82	1461.765
26.83	1231.395	26.83	1413.463
26.84	1360.548	26.84	1332.113
26.85	1247.085	26.85	1286.354
26.86	1176.016	26.86	1441.428
26.87	1221.861	26.87	1143.99
26.88	1344.735	26.88	1293.98
26.89	1293.415	26.89	1553.284
26.9	1230.268	26.9	1604.129
26.91	1061.375	26.91	1517.694
26.92	1162.014	26.92	1184.665
26.93	1276.056	26.93	1316.86
26.94	1369.354	26.94	1164.328
26.95	1401.282	26.95	1619.382
26.96	1248.546	26.96	1260.932
26.97	1408.895	26.97	1466.85
26.98	1304.524	26.98	1647.346
26.99	1360.348	26.99	1347.366
27	1321.463	27	1123.653
27.01	1264.139	27.01	1382.957
27.02	1286.505	27.02	1334.655
27.03	1251.521	27.03	1499.898
27.04	1339.722	27.04	1400.753
27.05	1252.193	27.05	1614.297
27.06	1423.756	27.06	1451.597
27.07	1419.134	27.07	1459.223
27.08	1311.457	27.08	1321.944
27.09	1376.565	27.09	1123.653
27.1	1397.382	27.1	1649.888
27.11	1311.16	27.11	1177.039
27.12	1290.175	27.12	1098.231
27.13	1236.038	27.13	1347.366
27.14	1266.249	27.14	1329.571
27.15	1203.607	27.15	1375.331
27.16	1127.919	27.16	1276.185
27.17	1351.306	27.17	1492.272
27.18	1207.323	27.18	1578.707
27.19	1135.754	27.19	1390.584
27.2	1290.261	27.2	1184.665
27.21	1238.057	27.21	1230.425
27.22	1272.922	27.22	1365.162
27.23	1115.756	27.23	1525.32
27.24	1219.985	27.24	1403.295
27.25	1173.122	27.25	1240.594
27.26	1202.829	27.26	1433.801
27.27	1226.668	27.27	1304.149
27.28	1162.107	27.28	1085.52
27.29	1187.417	27.29	1110.942
27.3	1228.508	27.3	940.6142
27.31	1212.668	27.31	1306.691
27.32	1437.337	27.32	1309.233
27.33	1297.016	27.33	1283.811
27.34	1242.023	27.34	1263.474
27.35	1401.722	27.35	1741.407
27.36	1374.868	27.36	1187.208
27.37	1319.952	27.37	1400.753
27.38	1357.055	27.38	1461.765
27.39	1196.163	27.39	1250.763
27.4	1244.235	27.4	1131.279
27.41	1371.391	27.41	1367.704
27.42	1272.145	27.42	1225.341
27.43	1309.268	27.43	1555.827
27.44	1306.642	27.44	1321.944
27.45	1300.72	27.45	1210.087
27.46	1252.193	27.46	1538.031
27.47	1188.383	27.47	1426.174
27.48	1272.554	27.48	1421.09
27.49	1347.649	27.49	1103.315
27.5	1274.789	27.5	968.5784
27.51	1350.552	27.51	1276.185
27.52	1303.973	27.52	1393.126
27.53	1450.006	27.53	1527.863
27.54	1338.535	27.54	1314.318
27.55	1234.52	27.55	1388.042
27.56	1219.622	27.56	1385.499
27.57	1381.369	27.57	1293.98
27.58	1342.373	27.58	1494.814
27.59	1343.658	27.59	1632.093
27.6	1283.319	27.6	1327.029
27.61	1353.144	27.61	1227.883
27.62	1318.484	27.62	1238.052
27.63	1238.1	27.63	1187.208
27.64	1319.175	27.64	1357.535
27.65	1236.669	27.65	1293.98
27.66	1200.443	27.66	1263.474
27.67	1204.652	27.67	1225.341
27.68	1175.422	27.68	1184.665
27.69	1209.485	27.69	1143.99
27.7	1310.291	27.7	1210.087
27.71	1206.062	27.71	1131.279
27.72	1156.161	27.72	1171.954
27.73	1275.409	27.73	1055.013
27.74	1422.835	27.74	1055.013
27.75	1217.242	27.75	1128.737
27.76	1224.004	27.76	1049.929
27.77	1115.175	27.77	1428.717
27.78	1185.458	27.78	1110.942
27.79	1329.775	27.79	1306.691
27.8	1156.159	27.8	1377.873
27.81	1230.911	27.81	1205.003
27.82	1323.451	27.82	1197.376
27.83	1247.279	27.83	1182.123
27.84	1357.345	27.84	1215.172
27.85	1333.08	27.85	1362.62
27.86	1275.238	27.86	1311.776
27.87	1248.059	27.87	1337.197
27.88	1317.926	27.88	1360.077
27.89	1237.026	27.89	1504.983
27.9	1264.457	27.9	1258.389
27.91	1140.753	27.91	1362.62
27.92	1224.052	27.92	1080.435
27.93	1297.208	27.93	1304.149
27.94	1256.061	27.94	1271.1
27.95	1166.356	27.95	1154.159
27.96	1146.068	27.96	1405.837
27.97	1268.601	27.97	1337.197
27.98	1402.493	27.98	1339.74
27.99	1180.767	27.99	1395.668
28	1285.236	28	1438.885
28.01	1295.161	28.01	1319.402
28.02	1239.82	28.02	1372.788
28.03	1147.635	28.03	1222.798
28.04	1187.245	28.04	1093.146
28.05	965.5981	28.05	1593.96
28.06	1297.501	28.06	1329.571
28.07	1384.011	28.07	1245.678
28.08	1164.372	28.08	1471.934
28.09	1182.453	28.09	1540.574
28.1	1267.015	28.1	1438.885
28.11	1328.556	28.11	1388.042
28.12	1185.71	28.12	1240.594
28.13	1143.749	28.13	1113.484
28.14	1098.481	28.14	1614.297
28.15	1224.739	28.15	1438.885
28.16	1130.539	28.16	1278.727
28.17	1065.969	28.17	1456.681
28.18	1173.916	28.18	1377.873
28.19	1233.318	28.19	1291.438
28.2	1406.72	28.2	1334.655
28.21	1276.079	28.21	1538.031
28.22	1143.966	28.22	1192.292
28.23	1176.659	28.23	1103.315
28.24	1207.888	28.24	1027.049
28.25	1233.484	28.25	1212.63
28.26	1194.172	28.26	1205.003
28.27	1155.781	28.27	1253.305
28.28	1095.184	28.28	1207.545
28.29	1211.041	28.29	1199.919
28.3	1204.857	28.3	1484.645
28.31	1331.152	28.31	1062.64
28.32	1294.573	28.32	1227.883
28.33	1391.832	28.33	1296.522
28.34	1393.559	28.34	1337.197
28.35	1312.191	28.35	1235.51
28.36	1356.963	28.36	1433.801
28.37	1225.114	28.37	1232.967
28.38	1153.893	28.38	1449.054
28.39	1133.141	28.39	1484.645
28.4	1142.263	28.4	1182.123
28.41	1245.53	28.41	1565.995
28.42	1330.486	28.42	1484.645
28.43	1182.977	28.43	1357.535
28.44	1133.984	28.44	1377.873
28.45	1347.744	28.45	1436.343
28.46	1287.975	28.46	1070.266
28.47	1277.557	28.47	1177.039
28.48	1289.106	28.48	1360.077
28.49	1133.203	28.49	1400.753
28.5	1215.528	28.5	1118.568
28.51	1092.2	28.51	1238.052
28.52	1311.357	28.52	1118.568
28.53	1269.633	28.53	1311.776
28.54	1195.483	28.54	1217.714
28.55	1302.378	28.55	1288.896
28.56	1184.788	28.56	1354.993
28.57	1209.641	28.57	1131.279
28.58	1138.838	28.58	1276.185
28.59	1232.725	28.59	1123.653
28.6	1264.356	28.6	849.095
28.61	1226.568	28.61	1009.254
28.62	1273.802	28.62	1143.99
28.63	1307.102	28.63	1212.63
28.64	1297.331	28.64	1095.688
28.65	1205.524	28.65	1238.052
28.66	1182.75	28.66	1100.773
28.67	1160.815	28.67	1006.711
28.68	1371.466	28.68	1334.655
28.69	1366.827	28.69	1258.389
28.7	1262.651	28.7	1187.208
28.71	1079.791	28.71	1339.74
28.72	1145.703	28.72	1042.302
28.73	1149.49	28.73	1423.632
28.74	1227.847	28.74	1360.077
28.75	1236.417	28.75	1182.123
28.76	1195.737	28.76	1319.402
28.77	1047.468	28.77	1164.328
28.78	1178.453	28.78	1299.064
28.79	1263.633	28.79	1339.74
28.8	1183.85	28.8	1271.1
28.81	1101.621	28.81	1011.796
28.82	1115.107	28.82	1314.318
28.83	1168.392	28.83	1024.507
28.84	1200.109	28.84	1260.932
28.85	1219.649	28.85	1443.97
28.86	1023.068	28.86	1357.535
28.87	1214.185	28.87	1342.282
28.88	1134.051	28.88	1235.51
28.89	1264.086	28.89	1220.256
28.9	1219.649	28.9	1131.279
28.91	1260.337	28.91	1260.932
28.92	1246.227	28.92	1032.133
28.93	1286.643	28.93	1174.497
28.94	1416.203	28.94	1182.123
28.95	1119.64	28.95	1001.627
28.96	1113.145	28.96	1189.75
28.97	1097.294	28.97	1362.62
28.98	1234.675	28.98	1098.231
28.99	1222.706	28.99	1538.031
29	1224.447	29	1535.489
29.01	1266.532	29.01	1187.208
29.02	1182.066	29.02	1210.087
29.03	1097.229	29.03	1113.484
29.04	1149.832	29.04	955.8674
29.05	1237.16	29.05	1042.302
29.06	1107.418	29.06	1182.123
29.07	1204.79	29.07	1182.123
29.08	1184.509	29.08	1197.376
29.09	1184.535	29.09	1342.282
29.1	1187.943	29.1	1273.642
29.11	1032.346	29.11	1118.568
29.12	1208.419	29.12	1080.435
29.13	1201.354	29.13	1060.098
29.14	1123.447	29.14	1253.305
29.15	1057.692	29.15	1245.678
29.16	1058.121	29.16	1133.821
29.17	1154.336	29.17	1385.499
29.18	1205.285	29.18	1085.52
29.19	1245.423	29.19	1019.422
29.2	1301.926	29.2	1479.561
29.21	1260.037	29.21	1332.113
29.22	1194.065	29.22	1070.266
29.23	1227.588	29.23	1339.74
29.24	1262.524	29.24	1293.98
29.25	1051.656	29.25	1192.292
29.26	1147.93	29.26	1143.99
29.27	1228.454	29.27	1174.497
29.28	1096.195	29.28	1179.581
29.29	1207.543	29.29	1126.195
29.3	1180.298	29.3	940.6142
29.31	1085.01	29.31	1128.737
29.32	1181.859	29.32	1123.653
29.33	1065.611	29.33	1189.75
29.34	1225.772	29.34	932.9876
29.35	1210.936	29.35	1304.149
29.36	1213.106	29.36	1398.21
29.37	1255.023	29.37	1100.773
29.38	1277.747	29.38	1021.965
29.39	1192.521	29.39	1194.834
29.4	1221.178	29.4	1166.87
29.41	1342.864	29.41	1248.22
29.42	1238.297	29.42	1136.364
29.43	1247.307	29.43	1011.796
29.44	1252.892	29.44	1316.86
29.45	1262.304	29.45	1255.847
29.46	1164.752	29.46	1329.571
29.47	1149.778	29.47	1217.714
29.48	1266.465	29.48	968.5784
29.49	1231.819	29.49	1291.438
29.5	1162.498	29.5	1182.123
29.51	1143.243	29.51	1266.016
29.52	1204.399	29.52	1245.678
29.53	1140.473	29.53	1205.003
29.54	1255.806	29.54	1128.737
29.55	1213.253	29.55	1296.522
29.56	1197.1	29.56	1428.717
29.57	1199.42	29.57	1123.653
29.58	1330.908	29.58	1504.983
29.59	1266.801	29.59	1192.292
29.6	1116.819	29.6	1263.474
29.61	1102.632	29.61	1121.11
29.62	1190.342	29.62	1329.571
29.63	1117.197	29.63	971.1206
29.64	1183.778	29.64	1039.76
29.65	1116.647	29.65	1253.305
29.66	1081.599	29.66	1121.11
29.67	1172.751	29.67	1116.026
29.68	1157.123	29.68	1154.159
29.69	1193.858	29.69	1248.22
29.7	1224.081	29.7	1065.182
29.71	1175.494	29.71	1250.763
29.72	1089.42	29.72	1388.042
29.73	1081.994	29.73	1243.136
29.74	985.6489	29.74	1166.87
29.75	1018.264	29.75	999.0848
29.76	1139.584	29.76	1011.796
29.77	1206.524	29.77	1141.448
29.78	1111.76	29.78	1016.88
29.79	1017.169	29.79	1210.087
29.8	1110.062	29.8	1276.185
29.81	1078.107	29.81	1316.86
29.82	1134.177	29.82	983.8316
29.83	1154.42	29.83	1149.075
29.84	1150.069	29.84	1037.218
29.85	1202.276	29.85	1159.244
29.86	1308.616	29.86	1108.399
29.87	1034.155	29.87	1151.617
29.88	1215.491	29.88	1283.811
29.89	1227.149	29.89	1016.88
29.9	1116.129	29.9	1100.773
29.91	1179.638	29.91	1118.568
29.92	1262.528	29.92	1189.75
29.93	1145.961	29.93	1039.76
29.94	1281.803	29.94	1052.471
29.95	1101.342	29.95	1004.169
29.96	1055.694	29.96	1138.906
29.97	1173.091	29.97	981.2894
29.98	1069.917	29.98	1293.98
29.99	1270.453	29.99	1271.1
30	1274.995	30	1118.568
30.01	1056.823	30.01	1098.231
30.02	1255.821	30.02	1098.231
30.03	1080.101	30.03	1062.64
30.04	1034.395	30.04	1057.555
30.05	1157.91	30.05	968.5784
30.06	1130.677	30.06	1133.821
30.07	1075.541	30.07	1105.857
30.08	1164.325	30.08	938.072
30.09	1095.015	30.09	1057.555
30.1	1094.008	30.1	1077.893
30.11	945.7006	30.11	1327.029
30.12	1005.452	30.12	1006.711
30.13	1088.708	30.13	1169.412
30.14	1063.87	30.14	1128.737
30.15	990.0003	30.15	1314.318
30.16	1114.116	30.16	1004.169
30.17	1339.595	30.17	1205.003
30.18	1151.662	30.18	991.4582
30.19	1095.676	30.19	1098.231
30.2	1076.159	30.2	1082.977
30.21	1100.111	30.21	1131.279
30.22	1073.213	30.22	1192.292
30.23	950.7139	30.23	879.6014
30.24	1092.88	30.24	1207.545
30.25	1241.615	30.25	1296.522
30.26	1315.229	30.26	1159.244
30.27	1222.033	30.27	1334.655
30.28	1057.963	30.28	1060.098
30.29	1103.768	30.29	1141.448
30.3	1182.322	30.3	1034.676
30.31	1220.679	30.31	1016.88
30.32	1236.777	30.32	1088.062
30.33	1227.991	30.33	1044.844
30.34	1040.846	30.34	1161.786
30.35	1160.283	30.35	1019.422
30.36	1142.656	30.36	1210.087
30.37	1109.25	30.37	973.6628
30.38	1130.623	30.38	988.916
30.39	1134.036	30.39	960.9518
30.4	1214.625	30.4	1205.003
30.41	1057.717	30.41	1187.208
30.42	1017.792	30.42	983.8316
30.43	1198.28	30.43	1205.003
30.44	1200.703	30.44	1044.844
30.45	1260.482	30.45	1212.63
30.46	1260.117	30.46	1133.821
30.47	1047.887	30.47	1314.318
30.48	1122.458	30.48	1039.76
30.49	1062.689	30.49	1032.133
30.5	1084.756	30.5	948.2408
30.51	1121.802	30.51	1184.665
30.52	1185.498	30.52	971.1206
30.53	1135.879	30.53	971.1206
30.54	1122.985	30.54	958.4096
30.55	1058.918	30.55	1329.571
30.56	1164.815	30.56	1365.162
30.57	1096.419	30.57	1273.642
30.58	973.4481	30.58	1189.75
30.59	1097.446	30.59	1143.99
30.6	1133.979	30.6	978.7472
30.61	1020.912	30.61	813.5042
30.62	1001.432	30.62	1202.461
30.63	1027.266	30.63	1207.545
30.64	1000.464	30.64	1146.532
30.65	1076.442	30.65	1299.064
30.66	1047.732	30.66	1197.376
30.67	1232.633	30.67	1321.944
30.68	1180.484	30.68	1128.737
30.69	1184.592	30.69	1027.049
30.7	1110.773	30.7	1159.244
30.71	1103.941	30.71	1126.195
30.72	1145.234	30.72	1082.977
30.73	1087.396	30.73	1220.256
30.74	1075.203	30.74	1098.231
30.75	1149.86	30.75	1344.824
30.76	1155.377	30.76	1276.185
30.77	1058.406	30.77	1260.932
30.78	1043.009	30.78	1100.773
30.79	1048.63	30.79	1060.098
30.8	1092.993	30.8	1004.169
30.81	1008.034	30.81	1530.405
30.82	951.1164	30.82	1197.376
30.83	976.7953	30.83	907.5656
30.84	1030.092	30.84	1141.448
30.85	1061.797	30.85	983.8316
30.86	1070.621	30.86	938.072
30.87	1101.011	30.87	988.916
30.88	1062.417	30.88	1049.929
30.89	1147.836	30.89	1110.942
30.9	1143.348	30.9	940.6142
30.91	1051.977	30.91	1021.965
30.92	1094.008	30.92	1055.013
30.93	1125.283	30.93	1342.282
30.94	1040.916	30.94	1258.389
30.95	1174.088	30.95	1205.003
30.96	1200.326	30.96	1360.077
30.97	1199.236	30.97	1276.185
30.98	1069.904	30.98	905.0234
30.99	969.061	30.99	943.1564
31	1020.025	31	866.8904
31.01	1118.98	31.01	1227.883
31.02	1173.385	31.02	1174.497
31.03	1117.567	31.03	1070.266
31.04	993.8849	31.04	1110.942
31.05	1054.157	31.05	1082.977
31.06	1173.662	31.06	1273.642
31.07	1205.112	31.07	1141.448
31.08	1121.659	31.08	1011.796
31.09	995.3061	31.09	1049.929
31.1	1120.786	31.1	1039.76
31.11	981.6742	31.11	1250.763
31.12	987.2981	31.12	1210.087
31.13	1081.444	31.13	932.9876
31.14	971.1245	31.14	1108.399
31.15	1008.197	31.15	1121.11
31.16	1000.109	31.16	1065.182
31.17	1081.4	31.17	950.783
31.18	1031.893	31.18	1309.233
31.19	1009.112	31.19	1273.642
31.2	864.9988	31.2	1243.136
31.21	1114.741	31.21	1151.617
31.22	1009.44	31.22	1138.906
31.23	1147.891	31.23	800.7932
31.24	935.3322	31.24	1037.218
31.25	1061.87	31.25	1309.233
31.26	1060.608	31.26	1110.942
31.27	1050.629	31.27	1309.233
31.28	1117.921	31.28	1199.919
31.29	947.2874	31.29	1250.763
31.3	991.787	31.3	1189.75
31.31	1036.057	31.31	1215.172
31.32	1099.088	31.32	1095.688
31.33	1103.32	31.33	1202.461
31.34	1059.674	31.34	1149.075
31.35	1035.66	31.35	1156.701
31.36	1085.536	31.36	1141.448
31.37	1029.311	31.37	1014.338
31.38	1035.251	31.38	960.9518
31.39	1036.099	31.39	1044.844
31.4	1022.668	31.4	1057.555
31.41	1044.926	31.41	1342.282
31.42	1063.957	31.42	973.6628
31.43	1021.526	31.43	1182.123
31.44	906.7487	31.44	1095.688
31.45	953.0624	31.45	935.5298
31.46	979.0988	31.46	1039.76
31.47	993.53	31.47	1004.169
31.48	1106.773	31.48	1032.133
31.49	1130.335	31.49	1037.218
31.5	1101.802	31.5	1072.809
31.51	1078.132	31.51	1327.029
31.52	1024.034	31.52	1255.847
31.53	1015.308	31.53	1098.231
31.54	975.886	31.54	971.1206
31.55	1052.749	31.55	884.6859
31.56	925.6013	31.56	999.0848
31.57	1007.582	31.57	1070.266
31.58	1009.032	31.58	1220.256
31.59	1039.278	31.59	1009.254
31.6	890.8694	31.6	940.6142
31.61	949.3672	31.61	1095.688
31.62	1037.607	31.62	1136.364
31.63	1042.988	31.63	1281.269
31.64	1041.319	31.64	945.6986
31.65	1098.286	31.65	948.2408
31.66	1156.409	31.66	1169.412
31.67	1099.443	31.67	1146.532
31.68	1066.205	31.68	1192.292
31.69	1020.801	31.69	897.3968
31.7	1027.592	31.7	889.7702
31.71	936.2584	31.71	983.8316
31.72	957.7195	31.72	1049.929
31.73	953.5649	31.73	1075.351
31.74	932.3513	31.74	1060.098
31.75	961.6015	31.75	1217.714
31.76	1096.611	31.76	1080.435
31.77	1100.18	31.77	826.2152
31.78	1030.202	31.78	1024.507
31.79	1094.909	31.79	1199.919
31.8	1118.075	31.8	1131.279
31.81	964.2371	31.81	1100.773
31.82	1010.888	31.82	1080.435
31.83	1021.127	31.83	1095.688
31.84	1128.231	31.84	1116.026
31.85	884.965	31.85	976.205
31.86	1063.553	31.86	1169.412
31.87	1049.109	31.87	844.0106
31.88	996.9615	31.88	1006.711
31.89	1051.468	31.89	1090.604
31.9	1036.364	31.9	1027.049
31.91	1108.412	31.91	1105.857
31.92	1105.575	31.92	994.0004
31.93	996.1666	31.93	1047.387
31.94	987.1862	31.94	790.6244
31.95	937.8645	31.95	1108.399
31.96	967.853	31.96	1070.266
31.97	1006.732	31.97	1217.714
31.98	997.2571	31.98	1098.231
31.99	1037.732	31.99	1077.893
32	1133.067	32	1184.665
32.01	1017.008	32.01	1021.965
32.02	944.952	32.02	1121.11
32.03	1068.557	32.03	1192.292
32.04	1062.066	32.04	1128.737
32.05	1047.458	32.05	994.0004
32.06	1146.723	32.06	905.0234
32.07	1015.359	32.07	966.0362
32.08	1025.365	32.08	1029.591
32.09	1035.559	32.09	1072.809
32.1	985.9488	32.1	1220.256
32.11	1074.76	32.11	1222.798
32.12	1126.421	32.12	971.1206
32.13	925.0857	32.13	1255.847
32.14	954.7992	32.14	1123.653
32.15	1077.541	32.15	1098.231
32.16	934.6917	32.16	1062.64
32.17	891.3176	32.17	932.9876
32.18	1049.511	32.18	1182.123
32.19	971.0352	32.19	1006.711
32.2	1016.88	32.2	709.2739
32.21	1137.416	32.21	795.7088
32.22	998.8845	32.22	1062.64
32.23	1017.441	32.23	1062.64
32.24	1022.96	32.24	1128.737
32.25	973.1681	32.25	943.1564
32.26	979.8544	32.26	826.2152
32.27	991.3008	32.27	1027.049
32.28	1008.979	32.28	1057.555
32.29	832.6855	32.29	915.1922
32.3	962.2703	32.3	1055.013
32.31	929.7446	32.31	1006.711
32.32	968.3929	32.32	996.5426
32.33	1097.642	32.33	978.7472
32.34	1073.033	32.34	869.4326
32.35	1035.014	32.35	1138.906
32.36	992.6013	32.36	983.8316
32.37	1070.257	32.37	795.7088
32.38	1003.46	32.38	1021.965
32.39	995.1298	32.39	1039.76
32.4	972.8826	32.4	966.0362
32.41	1086.331	32.41	1116.026
32.42	1057.963	32.42	1067.724
32.43	970.4327	32.43	1039.76
32.44	1055.605	32.44	966.0362
32.45	1064.442	32.45	920.2766
32.46	903.9839	32.46	950.783
32.47	882.4009	32.47	1169.412
32.48	910.2752	32.48	950.783
32.49	945.6663	32.49	1021.965
32.5	967.8773	32.5	1126.195
32.51	1005.698	32.51	1103.315
32.52	1038.935	32.52	1080.435
32.53	954.5173	32.53	1095.688
32.54	960.6736	32.54	1116.026
32.55	950.2834	32.55	1082.977
32.56	858.5925	32.56	1380.415
32.57	1051.32	32.57	1192.292
32.58	999.6669	32.58	981.2894
32.59	935.7166	32.59	1169.412
32.6	897.8076	32.6	1128.737
32.61	963.5078	32.61	1047.387
32.62	922.5291	32.62	983.8316
32.63	958.6426	32.63	798.251
32.64	797.8762	32.64	932.9876
32.65	978.9351	32.65	866.8904
32.66	985.5389	32.66	960.9518
32.67	990.7896	32.67	851.6372
32.68	955.696	32.68	887.228
32.69	905.8599	32.69	841.4683
32.7	862.1765	32.7	1029.591
32.71	950.6165	32.71	1075.351
32.72	854.3197	32.72	810.962
32.73	892.4093	32.73	772.829
32.74	880.0955	32.74	879.6014
32.75	888.7959	32.75	1126.195
32.76	907.9703	32.76	963.494
32.77	885.835	32.77	1238.052
32.78	959.5106	32.78	978.7472
32.79	900.0217	32.79	1184.665
32.8	845.0443	32.8	1060.098
32.81	868.5446	32.81	841.4683
32.82	911.5107	32.82	955.8674
32.83	930.3115	32.83	994.0004
32.84	1010.862	32.84	836.384
32.85	924.7894	32.85	1062.64
32.86	820.4904	32.86	1027.049
32.87	848.6071	32.87	1177.039
32.88	1059.443	32.88	1075.351
32.89	976.0816	32.89	1146.532
32.9	990.4484	32.9	874.517
32.91	926.8306	32.91	1011.796
32.92	900.1348	32.92	912.65
32.93	854.749	32.93	1019.422
32.94	966.6431	32.94	912.65
32.95	944.5039	32.95	1019.422
32.96	793.8991	32.96	930.4454
32.97	890.1052	32.97	861.806
32.98	928.7778	32.98	889.7702
32.99	912.9443	32.99	1161.786
33	966.8737	33	1039.76
33.01	957.2708	33.01	803.3353
33.02	792.9473	33.02	915.1922
33.03	1046.665	33.03	917.7344
33.04	956.7859	33.04	861.806
33.05	999.4032	33.05	943.1564
33.06	948.5235	33.06	902.4811
33.07	985.0301	33.07	788.0822
33.08	975.5835	33.08	915.1922
33.09	981.7661	33.09	882.1436
33.1	968.8497	33.1	838.9261
33.11	959.0601	33.11	816.0464
33.12	866.0811	33.12	920.2766
33.13	940.6911	33.13	1077.893
33.14	981.2773	33.14	884.6859
33.15	822.2352	33.15	729.6116
33.16	873.6623	33.16	1014.338
33.17	951.7325	33.17	968.5784
33.18	1038.773	33.18	849.095
33.19	920.4211	33.19	833.8418
33.2	984.4258	33.2	1100.773
33.21	868.2747	33.21	1085.52
33.22	891.8394	33.22	899.939
33.23	949.5522	33.23	963.494
33.24	933.3781	33.24	851.6372
33.25	869.4139	33.25	798.251
33.26	983.8934	33.26	739.7803
33.27	951.2195	33.27	856.7216
33.28	889.6221	33.28	963.494
33.29	876.4576	33.29	833.8418
33.3	863.4514	33.3	884.6859
33.31	880.9023	33.31	983.8316
33.32	886.2393	33.32	996.5426
33.33	795.3215	33.33	996.5426
33.34	935.8509	33.34	907.5656
33.35	963.7384	33.35	1072.809
33.36	958.1677	33.36	1027.049
33.37	940.6542	33.37	856.7216
33.38	939.9599	33.38	798.251
33.39	935.516	33.39	828.7574
33.4	847.0403	33.4	851.6372
33.41	827.6179	33.41	871.9748
33.42	888.746	33.42	945.6986
33.43	747.8902	33.43	1116.026
33.44	840.646	33.44	960.9518
33.45	939.4355	33.45	882.1436
33.46	1025.287	33.46	749.9492
33.47	1028.683	33.47	1052.471
33.48	868.7053	33.48	938.072
33.49	976.061	33.49	844.0106
33.5	751.803	33.5	798.251
33.51	823.6295	33.51	899.939
33.52	795.7032	33.52	986.3738
33.53	819.9417	33.53	960.9518
33.54	774.6983	33.54	1027.049
33.55	756.7744	33.55	1250.763
33.56	876.1321	33.56	889.7702
33.57	948.0311	33.57	940.6142
33.58	913.2636	33.58	831.2996
33.59	938.7894	33.59	973.6628
33.6	909.7171	33.6	978.7472
33.61	814.7565	33.61	851.6372
33.62	756.7769	33.62	887.228
33.63	755.9144	33.63	859.2637
33.64	908.3959	33.64	729.6116
33.65	796.99	33.65	996.5426
33.66	990.9839	33.66	877.0591
33.67	731.4792	33.67	925.361
33.68	802.842	33.68	828.7574
33.69	811.7236	33.69	920.2766
33.7	788.8495	33.7	882.1436
33.71	994.5486	33.71	856.7216
33.72	883.1558	33.72	996.5426
33.73	845.4962	33.73	714.3584
33.74	830.4313	33.74	813.5042
33.75	765.1948	33.75	691.4786
33.76	818.8961	33.76	902.4811
33.77	889.174	33.77	935.5298
33.78	898.0145	33.78	917.7344
33.79	888.7147	33.79	772.829
33.8	770.37	33.8	681.3098
33.81	863.5583	33.81	884.6859
33.82	816.4614	33.82	1128.737
33.83	893.4017	33.83	838.9261
33.84	797.0081	33.84	1060.098
33.85	904.8682	33.85	849.095
33.86	840.6653	33.86	902.4811
33.87	917.8376	33.87	968.5784
33.88	825.6468	33.88	798.251
33.89	949.136	33.89	897.3968
33.9	821.6865	33.9	968.5784
33.91	776.6732	33.91	958.4096
33.92	1038.945	33.92	795.7088
33.93	894.5166	33.93	879.6014
33.94	926.8924	33.94	663.5143
33.95	842.4296	33.95	879.6014
33.96	818.743	33.96	648.2611
33.97	791.823	33.97	805.8775
33.98	821.2997	33.98	940.6142
33.99	811.0075	33.99	849.095
34	834.0391	34	798.251
34.01	851.5812	34.01	882.1436
34.02	820.8715	34.02	859.2637
34.03	846.3298	34.03	800.7932
34.04	833.7823	34.04	633.0079
34.05	798.6674	34.05	1055.013
34.06	757.6318	34.06	958.4096
34.07	833.1166	34.07	882.1436
34.08	915.0091	34.08	803.3353
34.09	975.1336	34.09	882.1436
34.1	953.1618	34.1	770.2868
34.11	867.7066	34.11	859.2637
34.12	848.9371	34.12	856.7216
34.13	838.5956	34.13	676.2253
34.14	968.1304	34.14	1077.893
34.15	886.2723	34.15	640.6345
34.16	759.5235	34.16	800.7932
34.17	885.0187	34.17	744.8647
34.18	810.5594	34.18	732.1538
34.19	766.4229	34.19	1052.471
34.2	826.5955	34.2	831.2996
34.21	944.2483	34.21	757.5757
34.22	906.4518	34.22	770.2868
34.23	760.0178	34.23	844.0106
34.24	792.0986	34.24	747.4069
34.25	817.8937	34.25	838.9261
34.26	961.7148	34.26	694.0208
34.27	829.952	34.27	920.2766
34.28	797.4269	34.28	671.141
34.29	857.1426	34.29	790.6244
34.3	933.2687	34.3	955.8674
34.31	805.0936	34.31	1100.773
34.32	755.5351	34.32	816.0464
34.33	730.7593	34.33	772.829
34.34	706.2653	34.34	808.4198
34.35	831.6874	34.35	617.7548
34.36	844.4581	34.36	500.8135
34.37	867.2592	34.37	844.0106
34.38	888.6921	34.38	859.2637
34.39	853.0511	34.39	943.1564
34.4	821.4365	34.4	920.2766
34.41	762.4601	34.41	1093.146
34.42	732.4929	34.42	994.0004
34.43	824.6612	34.43	922.8188
34.44	896.3328	34.44	826.2152
34.45	929.2891	34.45	760.118
34.46	891.9788	34.46	805.8775
34.47	761.6221	34.47	760.118
34.48	884.3619	34.48	752.4914
34.49	854.874	34.49	752.4914
34.5	735.2726	34.5	823.6729
34.51	930.6027	34.51	922.8188
34.52	926.7206	34.52	739.7803
34.53	767.1478	34.53	747.4069
34.54	863.2877	34.54	841.4683
34.55	835.7533	34.55	747.4069
34.56	847.0829	34.56	749.9492
34.57	823.705	34.57	788.0822
34.58	774.0128	34.58	864.3481
34.59	857.0701	34.59	874.517
34.6	842.4677	34.6	785.5399
34.61	761.3827	34.61	808.4198
34.62	709.1044	34.62	849.095
34.63	745.0079	34.63	854.1794
34.64	793.6428	34.64	818.5886
34.65	765.7573	34.65	920.2766
34.66	822.1483	34.66	864.3481
34.67	807.8821	34.67	729.6116
34.68	833.4167	34.68	978.7472
34.69	700.6476	34.69	945.6986
34.7	719.1547	34.7	1024.507
34.71	862.0253	34.71	752.4914
34.72	745.1661	34.72	782.9977
34.73	746.6465	34.73	1042.302
34.74	775.2227	34.74	793.1666
34.75	795.0753	34.75	859.2637
34.76	789.0458	34.76	767.7445
34.77	738.9354	34.77	734.696
34.78	740.9283	34.78	643.1768
34.79	579.2333	34.79	897.3968
34.8	746.156	34.8	953.3252
34.81	736.9337	34.81	920.2766
34.82	806.746	34.82	666.0565
34.83	775.0276	34.83	719.4427
34.84	755.157	34.84	643.1768
34.85	817.9269	34.85	737.2382
34.86	800.2853	34.86	894.8546
34.87	744.9199	34.87	790.6244
34.88	757.6318	34.88	683.8519
34.89	731.1936	34.89	706.7318
34.9	815.1902	34.9	889.7702
34.91	849.8414	34.91	772.829
34.92	809.6751	34.92	912.65
34.93	871.8243	34.93	757.5757
34.94	884.5745	34.94	1016.88
34.95	877.8906	34.95	968.5784
34.96	876.4965	34.96	849.095
34.97	763.5419	34.97	744.8647
34.98	747.0872	34.98	536.4043
34.99	713.9427	34.99	561.8263
35	709.0075	35	818.5886
35.01	750.4368	35.01	854.1794
35.02	819.6117	35.02	871.9748
35.03	851.695	35.03	838.9261
35.04	783.3663	35.04	851.6372
35.05	805.3049	35.05	1049.929
35.06	741.7439	35.06	1095.688
35.07	703.0269	35.07	1009.254
35.08	864.2869	35.08	818.5886
35.09	728.5089	35.09	739.7803
35.1	763.6806	35.1	749.9492
35.11	809.5632	35.11	770.2868
35.12	738.0692	35.12	808.4198
35.13	780.6747	35.13	688.9363
35.14	855.7896	35.14	582.1639
35.15	791.5392	35.15	676.2253
35.16	709.36	35.16	905.0234
35.17	715.8863	35.17	899.939
35.18	772.7954	35.18	912.65
35.19	836.4183	35.19	630.4658
35.2	887.0398	35.2	910.1078
35.21	781.9452	35.21	777.9134
35.22	852.7537	35.22	930.4454
35.23	811.3149	35.23	866.8904
35.24	798.9711	35.24	836.384
35.25	822.2495	35.25	709.2739
35.26	737.1106	35.26	869.4326
35.27	718.1992	35.27	699.1052
35.28	731.2992	35.28	760.118
35.29	759.9841	35.29	541.4887
35.3	703.9573	35.3	721.9849
35.31	833.3135	35.31	663.5143
35.32	776.3563	35.32	882.1436
35.33	865.0143	35.33	755.0336
35.34	738.7748	35.34	625.3813
35.35	739.166	35.35	788.0822
35.36	773.7753	35.36	795.7088
35.37	773.8541	35.37	864.3481
35.38	744.3343	35.38	856.7216
35.39	727.6827	35.39	818.5886
35.4	792.9092	35.4	813.5042
35.41	769.5813	35.41	599.9594
35.42	810.29	35.42	622.8391
35.43	741.5096	35.43	683.8519
35.44	868.7565	35.44	851.6372
35.45	827.8047	35.45	678.7676
35.46	741.5458	35.46	882.1436
35.47	861.1703	35.47	737.2382
35.48	784.6318	35.48	800.7932
35.49	740.2509	35.49	742.3226
35.5	790.0225	35.5	643.1768
35.51	855.4446	35.51	701.6473
35.52	890.5833	35.52	836.384
35.53	732.451	35.53	782.9977
35.54	738.6266	35.54	755.0336
35.55	765.6104	35.55	805.8775
35.56	770.4125	35.56	777.9134
35.57	691.6654	35.57	772.829
35.58	715.7156	35.58	772.829
35.59	659.2365	35.59	879.6014
35.6	693.0759	35.6	841.4683
35.61	703.5505	35.61	851.6372
35.62	615.1013	35.62	871.9748
35.63	811.0887	35.63	785.5399
35.64	755.3264	35.64	648.2611
35.65	684.6929	35.65	915.1922
35.66	740.774	35.66	849.095
35.67	672.7978	35.67	780.4556
35.68	743.8843	35.68	648.2611
35.69	769.4988	35.69	950.783
35.7	654.3013	35.7	729.6116
35.71	568.9642	35.71	638.0923
35.72	655.2988	35.72	737.2382
35.73	619.1602	35.73	788.0822
35.74	657.991	35.74	793.1666
35.75	630.153	35.75	704.1895
35.76	692.3422	35.76	744.8647
35.77	660.1158	35.77	788.0822
35.78	752.546	35.78	775.3712
35.79	713.5871	35.79	826.2152
35.8	713.6527	35.8	620.2969
35.81	611.6246	35.81	749.9492
35.82	611.0716	35.82	666.0565
35.83	778.1055	35.83	899.939
35.84	736.8537	35.84	739.7803
35.85	693.6171	35.85	694.0208
35.86	697.7917	35.86	602.5015
35.87	614.0714	35.87	749.9492
35.88	683.1712	35.88	879.6014
35.89	711.3423	35.89	823.6729
35.9	564.0191	35.9	653.3456
35.91	675.4825	35.91	505.8979
35.92	711.6605	35.92	772.829
35.93	744.403	35.93	813.5042
35.94	665.8297	35.94	617.7548
35.95	703.0168	35.95	660.9722
35.96	638.566	35.96	582.1639
35.97	673.5989	35.97	747.4069
35.98	601.5994	35.98	844.0106
35.99	721.677	35.99	658.4299
36	715.4826	36	790.6244
36.01	702.8937	36.01	671.141
36.02	761.4052	36.02	704.1895
36.03	711.1898	36.03	907.5656
36.04	736.8624	36.04	757.5757
36.05	714.0015	36.05	607.5859
36.06	569.5048	36.06	518.6089
36.07	530.6253	36.07	793.1666
36.08	699.5497	36.08	673.6832
36.09	658.0016	36.09	686.3941
36.1	648.3151	36.1	709.2739
36.11	594.445	36.11	782.9977
36.12	670.8873	36.12	810.962
36.13	713.5746	36.13	813.5042
36.14	664.2117	36.14	528.7777
36.15	631.3348	36.15	772.829
36.16	660.9001	36.16	706.7318
36.17	632.2852	36.17	513.5245
36.18	744.4799	36.18	559.2841
36.19	748.282	36.19	711.8162
36.2	786.1048	36.2	821.1307
36.21	573.7438	36.21	762.6602
36.22	737.168	36.22	699.1052
36.23	652.4946	36.23	584.7061
36.24	732.1948	36.24	889.7702
36.25	756.4144	36.25	828.7574
36.26	626.2427	36.26	653.3456
36.27	642.4787	36.27	844.0106
36.28	747.6396	36.28	767.7445
36.29	694.0139	36.29	788.0822
36.3	709.3119	36.3	579.6217
36.31	645.3802	36.31	513.5245
36.32	749.95	36.32	579.6217
36.33	761.687	36.33	714.3584
36.34	710.9623	36.34	803.3353
36.35	690.0506	36.35	724.5272
36.36	623.2874	36.36	711.8162
36.37	736.1363	36.37	747.4069
36.38	679.0378	36.38	823.6729
36.39	589.1749	36.39	531.3199
36.4	675.4394	36.4	737.2382
36.41	611.1603	36.41	737.2382
36.42	686.9577	36.42	678.7676
36.43	766.3679	36.43	671.141
36.44	630.9642	36.44	493.1869
36.45	714.0171	36.45	752.4914
36.46	720.2678	36.46	686.3941
36.47	635.4412	36.47	635.5501
36.48	690.9067	36.48	808.4198
36.49	607.2426	36.49	691.4786
36.5	666.1884	36.5	724.5272
36.51	665.7477	36.51	518.6089
36.52	670.1368	36.52	630.4658
36.53	574.5144	36.53	650.8033
36.54	566.6507	36.54	597.4171
36.55	599.4864	36.55	714.3584
36.56	698.9747	36.56	856.7216
36.57	745.3729	36.57	643.1768
36.58	730.8386	36.58	770.2868
36.59	760.7883	36.59	775.3712
36.6	875.9396	36.6	683.8519
36.61	721.5132	36.61	564.3685
36.62	648.3776	36.62	566.9107
36.63	757.6837	36.63	711.8162
36.64	662.7437	36.64	678.7676
36.65	724.6105	36.65	653.3456
36.66	675.0469	36.66	775.3712
36.67	614.3757	36.67	597.4171
36.68	528.2105	36.68	747.4069
36.69	582.3292	36.69	559.2841
36.7	780.0685	36.7	546.5731
36.71	745.8598	36.71	655.8878
36.72	645.3771	36.72	671.141
36.73	704.7042	36.73	635.5501
36.74	701.4451	36.74	666.0565
36.75	644.8298	36.75	671.141
36.76	567.2031	36.76	813.5042
36.77	590.5978	36.77	762.6602
36.78	568.8036	36.78	610.1281
36.79	590.111	36.79	749.9492
36.8	661.8375	36.8	648.2611
36.81	597.636	36.81	737.2382
36.82	672.5834	36.82	770.2868
36.83	625.3171	36.83	505.8979
36.84	647.0133	36.84	592.3327
36.85	649.9374	36.85	805.8775
36.86	640.1083	36.86	655.8878
36.87	637.186	36.87	523.6933
36.88	658.9297	36.88	579.6217
36.89	701.5864	36.89	607.5859
36.9	563.7085	36.9	645.7189
36.91	625.1766	36.91	721.9849
36.92	590.6516	36.92	643.1768
36.93	586.5482	36.93	630.4658
36.94	573.9469	36.94	755.0336
36.95	704.0755	36.95	737.2382
36.96	711.6698	36.96	607.5859
36.97	735.88	36.97	660.9722
36.98	662.7256	36.98	564.3685
36.99	772.1005	36.99	780.4556
37	693.8546	37	582.1639
37.01	752.6979	37.01	602.5015
37.02	634.1507	37.02	699.1052
37.03	567.4788	37.03	800.7932
37.04	647.8713	37.04	617.7548
37.05	720.1921	37.05	714.3584
37.06	608.3906	37.06	643.1768
37.07	657.6423	37.07	683.8519
37.08	608.7162	37.08	602.5015
37.09	606.7545	37.09	536.4043
37.1	666.4352	37.1	475.3915
37.11	574.8374	37.11	592.3327
37.12	658.2603	37.12	841.4683
37.13	570.4472	37.13	643.1768
37.14	531.2646	37.14	610.1281
37.15	690.7186	37.15	610.1281
37.16	691.4366	37.16	610.1281
37.17	562.8311	37.17	645.7189
37.18	579.6264	37.18	775.3712
37.19	668.3126	37.19	686.3941
37.2	696.9355	37.2	653.3456
37.21	656.5674	37.21	597.4171
37.22	510.076	37.22	429.6319
37.23	599.8483	37.23	655.8878
37.24	647.6601	37.24	727.0693
37.25	633.1246	37.25	643.1768
37.26	663.8129	37.26	648.2611
37.27	729.21	37.27	704.1895
37.28	711.8229	37.28	569.4529
37.29	640.7932	37.29	513.5245
37.3	601.4212	37.3	615.2125
37.31	693.2415	37.31	683.8519
37.32	552.777	37.32	833.8418
37.33	679.9434	37.33	640.6345
37.34	555.7173	37.34	681.3098
37.35	605.5984	37.35	584.7061
37.36	551.1677	37.36	782.9977
37.37	595.8236	37.37	564.3685
37.38	632.366	37.38	688.9363
37.39	635.4412	37.39	569.4529
37.4	690.7798	37.4	638.0923
37.41	586.207	37.41	739.7803
37.42	644.7285	37.42	823.6729
37.43	646.4646	37.43	424.5475
37.44	634.6445	37.44	775.3712
37.45	647.8838	37.45	620.2969
37.46	618.3484	37.46	607.5859
37.47	682.995	37.47	485.5603
37.48	671.7816	37.48	592.3327
37.49	649.1	37.49	610.1281
37.5	565.5115	37.5	645.7189
37.51	663.5336	37.51	615.2125
37.52	643.3624	37.52	521.1511
37.53	612.9127	37.53	739.7803
37.54	510.3309	37.54	737.2382
37.55	509.3885	37.55	571.9951
37.56	578.389	37.56	780.4556
37.57	618.6091	37.57	688.9363
37.58	636.0624	37.58	457.5961
37.59	561.7437	37.59	676.2253
37.6	557.5859	37.6	711.8162
37.61	714.8333	37.61	658.4299
37.62	562.4874	37.62	650.8033
37.63	567.1469	37.63	633.0079
37.64	584.8453	37.64	861.806
37.65	520.32	37.65	610.1281
37.66	615.6075	37.66	765.2023
37.67	515.8448	37.67	721.9849
37.68	565.989	37.68	747.4069
37.69	589.5136	37.69	645.7189
37.7	565.1496	37.7	701.6473
37.71	680.2271	37.71	569.4529
37.72	572.9089	37.72	620.2969
37.73	559.4171	37.73	630.4658
37.74	619.5565	37.74	630.4658
37.75	607.8444	37.75	648.2611
37.76	587.7069	37.76	686.3941
37.77	505.6876	37.77	673.6832
37.78	526.5719	37.78	635.5501
37.79	598.5422	37.79	808.4198
37.8	529.4879	37.8	549.1153
37.81	617.0992	37.81	561.8263
37.82	632.3084	37.82	551.6575
37.83	696.8343	37.83	691.4786
37.84	651.3185	37.84	747.4069
37.85	512.7495	37.85	467.7649
37.86	560.5575	37.86	498.2713
37.87	558.6714	37.87	544.0309
37.88	708.8101	37.88	762.6602
37.89	603.3036	37.89	686.3941
37.9	631.2266	37.9	635.5501
37.91	556.3717	37.91	559.2841
37.92	571.0134	37.92	531.3199
37.93	544.9808	37.93	582.1639
37.94	580.3288	37.94	625.3813
37.95	588.4287	37.95	612.6703
37.96	622.2568	37.96	645.7189
37.97	637.1261	37.97	579.6217
37.98	634.5807	37.98	694.0208
37.99	567.5662	37.99	694.0208
38	500.4206	38	602.5015
38.01	583.5373	38.01	643.1768
38.02	626.2971	38.02	544.0309
38.03	599.4239	38.03	528.7777
38.04	655.7968	38.04	528.7777
38.05	694.9607	38.05	724.5272
38.06	626.592	38.06	574.5373
38.07	624.1985	38.07	531.3199
38.08	609.8124	38.08	742.3226
38.09	569.4342	38.09	755.0336
38.1	647.9976	38.1	645.7189
38.11	641.2482	38.11	790.6244
38.12	697.4523	38.12	706.7318
38.13	590.3948	38.13	620.2969
38.14	594.0232	38.14	556.7419
38.15	504.927	38.15	584.7061
38.16	596.0411	38.16	500.8135
38.17	691.3854	38.17	772.829
38.18	635.8943	38.18	653.3456
38.19	422.4228	38.19	630.4658
38.2	547.2844	38.2	666.0565
38.21	583.541	38.21	653.3456
38.22	636.5192	38.22	650.8033
38.23	667.9657	38.23	721.9849
38.24	669.9462	38.24	678.7676
38.25	616.4917	38.25	742.3226
38.26	551.0584	38.26	610.1281
38.27	536.1598	38.27	678.7676
38.28	640.7089	38.28	816.0464
38.29	655.9381	38.29	744.8647
38.3	503.7659	38.3	660.9722
38.31	566.2495	38.31	561.8263
38.32	599.9476	38.32	691.4786
38.33	610.4655	38.33	747.4069
38.34	523.5922	38.34	716.9006
38.35	639.8896	38.35	782.9977
38.36	646.2164	38.36	757.5757
38.37	635.7168	38.37	574.5373
38.38	761.7095	38.38	531.3199
38.39	622.7224	38.39	617.7548
38.4	470.7065	38.4	648.2611
38.41	461.1711	38.41	526.2355
38.42	586.4008	38.42	579.6217
38.43	598.1503	38.43	589.7905
38.44	610.5923	38.44	625.3813
38.45	587.0388	38.45	523.6933
38.46	667.1327	38.46	544.0309
38.47	477.0984	38.47	513.5245
38.48	485.6744	38.48	704.1895
38.49	597.5673	38.49	678.7676
38.5	624.4828	38.5	528.7777
38.51	617.9891	38.51	437.2585
38.52	677.8892	38.52	871.9748
38.53	539.4101	38.53	508.4401
38.54	530.6296	38.54	625.3813
38.55	643.7374	38.55	633.0079
38.56	618.6022	38.56	523.6933
38.57	640.9857	38.57	650.8033
38.58	632.2141	38.58	706.7318
38.59	516.1866	38.59	676.2253
38.6	611.0629	38.6	635.5501
38.61	601.6259	38.61	612.6703
38.62	554.689	38.62	770.2868
38.63	500.485	38.63	615.2125
38.64	609.3549	38.64	749.9492
38.65	624.5847	38.65	612.6703
38.66	594.9612	38.66	803.3353
38.67	623.3017	38.67	673.6832
38.68	642.5549	38.68	650.8033
38.69	633.8527	38.69	668.5987
38.7	561.0425	38.7	582.1639
38.71	596.7729	38.71	587.2483
38.72	500.1181	38.72	500.8135
38.73	478.2632	38.73	452.5117
38.74	630.7367	38.74	500.8135
38.75	596.5229	38.75	721.9849
38.76	514.483	38.76	681.3098
38.77	637.9778	38.77	671.141
38.78	559.5445	38.78	617.7548
38.79	579.3439	38.79	467.7649
38.8	685.7141	38.8	554.1997
38.81	458.4776	38.81	587.2483
38.82	466.4081	38.82	678.7676
38.83	535.3917	38.83	584.7061
38.84	563.6979	38.84	729.6116
38.85	563.6979	38.85	645.7189
38.86	535.2968	38.86	594.8749
38.87	663.8386	38.87	678.7676
38.88	590.7847	38.88	620.2969
38.89	546.5045	38.89	574.5373
38.9	545.9507	38.9	800.7932
38.91	581.4738	38.91	531.3199
38.92	552.6289	38.92	577.0795
38.93	525.1501	38.93	643.1768
38.94	620.1108	38.94	401.6677
38.95	559.7876	38.95	490.6447
38.96	491.5483	38.96	544.0309
38.97	548.8967	38.97	780.4556
38.98	584.1541	38.98	582.1639
38.99	483.7446	38.99	638.0923
39	474.6905	39	686.3941
39.01	552.9214	39.01	744.8647
39.02	660.027	39.02	627.9235
39.03	535.9467	39.03	538.9465
39.04	489.4235	39.04	653.3456
39.05	521.9274	39.05	599.9594
39.06	563.2422	39.06	554.1997
39.07	508.6061	39.07	477.9337
39.08	542.1061	39.08	663.5143
39.09	528.8049	39.09	655.8878
39.1	563.7129	39.1	597.4171
39.11	562.8311	39.11	785.5399
39.12	593.7849	39.12	582.1639
39.13	546.5001	39.13	744.8647
39.14	524.3171	39.14	541.4887
39.15	520.3294	39.15	757.5757
39.16	611.4278	39.16	775.3712
39.17	549.1942	39.17	434.7163
39.18	567.8256	39.18	564.3685
39.19	623.263	39.19	732.1538
39.2	642.4106	39.2	538.9465
39.21	588.9462	39.21	668.5987
39.22	590.9479	39.22	744.8647
39.23	612.3334	39.23	592.3327
39.24	497.1103	39.24	676.2253
39.25	460.3405	39.25	584.7061
39.26	592.5609	39.26	587.2483
39.27	590.3854	39.27	483.0181
39.28	503.5497	39.28	681.3098
39.29	563.5416	39.29	640.6345
39.3	512.7819	39.3	701.6473
39.31	632.1741	39.31	569.4529
39.32	544.2828	39.32	655.8878
39.33	465.0851	39.33	510.9823
39.34	523.6984	39.34	523.6933
39.35	511.5052	39.35	564.3685
39.36	526.4819	39.36	605.0437
39.37	545.2465	39.37	627.9235
39.38	559.6595	39.38	808.4198
39.39	683.5781	39.39	584.7061
39.4	710.6955	39.4	780.4556
39.41	574.8999	39.41	582.1639
39.42	556.7629	39.42	655.8878
39.43	565.7527	39.43	617.7548
39.44	579.5626	39.44	752.4914
39.45	629.9105	39.45	488.1025
39.46	576.741	39.46	589.7905
39.47	584.4997	39.47	556.7419
39.48	552.4164	39.48	584.7061
39.49	512.4526	39.49	589.7905
39.5	469.5497	39.5	660.9722
39.51	519.7626	39.51	564.3685
39.52	562.2692	39.52	566.9107
39.53	582.1805	39.53	569.4529
39.54	537.001	39.54	622.8391
39.55	565.0183	39.55	683.8519
39.56	568.3587	39.56	495.7291
39.57	658.2672	39.57	521.1511
39.58	557.2191	39.58	493.1869
39.59	562.2024	39.59	541.4887
39.6	458.207	39.6	442.3429
39.61	627.9719	39.61	462.6805
39.62	619.6933	39.62	645.7189
39.63	585.6965	39.63	760.118
39.64	551.4671	39.64	683.8519
39.65	482.0473	39.65	599.9594
39.66	524.6733	39.66	589.7905
39.67	510.9052	39.67	607.5859
39.68	520.1038	39.68	574.5373
39.69	581.7687	39.69	622.8391
39.7	552.299	39.7	683.8519
39.71	612.6321	39.71	584.7061
39.72	629.4349	39.72	444.8851
39.73	552.1589	39.73	622.8391
39.74	596.588	39.74	686.3941
39.75	576.3954	39.75	513.5245
39.76	528.7305	39.76	772.829
39.77	544.5921	39.77	742.3226
39.78	457.9147	39.78	536.4043
39.79	596.3765	39.79	526.2355
39.8	596.7973	39.8	493.1869
39.81	609.6768	39.81	434.7163
39.82	554.9174	39.82	587.2483
39.83	584.7521	39.83	396.5833
39.84	524.7565	39.84	526.2355
39.85	647.3276	39.85	442.3429
39.86	565.0258	39.86	444.8851
39.87	521.9836	39.87	696.563
39.88	568.2656	39.88	554.1997
39.89	591.6309	39.89	546.5731
39.9	656.7361	39.9	513.5245
39.91	516.7885	39.91	472.8493
39.92	459.595	39.92	592.3327
39.93	494.6136	39.93	574.5373
39.94	557.7922	39.94	605.0437
39.95	562.9479	39.95	752.4914
39.96	594.6563	39.96	470.3071
39.97	637.1011	39.97	444.8851
39.98	482.8928	39.98	483.0181
39.99	522.8954	39.99	488.1025
40	615.2719	40	381.3301
40.01	641.7487	40.01	633.0079
40.02	549.0292	40.02	510.9823
40.03	620.442	40.03	541.4887
40.04	578.5696	40.04	620.2969
40.05	536.0392	40.05	559.2841
40.06	534.2424	40.06	531.3199
40.07	561.3356	40.07	617.7548
40.08	554.7049	40.08	577.0795
40.09	531.957	40.09	605.0437
40.1	584.3897	40.1	467.7649
40.11	551.8402	40.11	518.6089
40.12	605.6877	40.12	635.5501
40.13	501.9654	40.13	668.5987
40.14	533.8262	40.14	688.9363
40.15	623.5048	40.15	691.4786
40.16	549.0067	40.16	673.6832
40.17	573.5164	40.17	457.5961
40.18	477.3746	40.18	551.6575
40.19	586.0552	40.19	569.4529
40.2	529.1079	40.2	498.2713
40.21	462.0054	40.21	452.5117
40.22	488.4436	40.22	322.8595
40.23	557.8547	40.23	376.2457
40.24	605.0696	40.24	457.5961
40.25	588.2962	40.25	521.1511
40.26	389.9796	40.26	599.9594
40.27	564.3853	40.27	521.1511
40.28	536.5953	40.28	579.6217
40.29	512.4526	40.29	643.1768
40.3	602.6542	40.3	544.0309
40.31	597.4291	40.31	510.9823
40.32	640.9251	40.32	490.6447
40.33	577.3372	40.33	612.6703
40.34	647.3239	40.34	666.0565
40.35	625.5046	40.35	617.7548
40.36	549.2611	40.36	663.5143
40.37	540.0688	40.37	635.5501
40.38	497.4034	40.38	577.0795
40.39	562.8073	40.39	800.7932
40.4	520.4775	40.4	638.0923
40.41	599.8333	40.41	574.5373
40.42	549.7504	40.42	605.0437
40.43	557.1609	40.43	627.9235
40.44	479.9843	40.44	737.2382
40.45	496.4516	40.45	467.7649
40.46	542.3279	40.46	444.8851
40.47	579.562	40.47	483.0181
40.48	544.0665	40.48	434.7163
40.49	541.0244	40.49	444.8851
40.5	503.0485	40.5	411.8365
40.51	486.5069	40.51	709.2739
40.52	500.0931	40.52	592.3327
40.53	529.3167	40.53	622.8391
40.54	672.1866	40.54	505.8979
40.55	680.0458	40.55	505.8979
40.56	527.1775	40.56	633.0079
40.57	544.6515	40.57	561.8263
40.58	588.4162	40.58	477.9337
40.59	501.7498	40.59	521.1511
40.6	604.116	40.6	510.9823
40.61	554.4644	40.61	490.6447
40.62	567.6881	40.62	683.8519
40.63	538.5008	40.63	480.4759
40.64	563.7604	40.64	607.5859
40.65	523.7853	40.65	577.0795
40.66	479.66	40.66	676.2253
40.67	489.8016	40.67	638.0923
40.68	548.543	40.68	630.4658
40.69	551.1666	40.69	683.8519
40.7	629.9117	40.7	460.1383
40.71	593.6707	40.71	427.0897
40.72	488.4704	40.72	533.8621
40.73	507.2381	40.73	727.0693
40.74	593.5695	40.74	485.5603
40.75	547.1063	40.75	536.4043
40.76	586.8364	40.76	495.7291
40.77	531.0759	40.77	470.3071
40.78	462.281	40.78	503.3557
40.79	562.9973	40.79	490.6447
40.8	667.0789	40.8	416.9209
40.81	528.5992	40.81	816.0464
40.82	678.8597	40.82	571.9951
40.83	548.7117	40.83	475.3915
40.84	503.0235	40.84	627.9235
40.85	568.2243	40.85	561.8263
40.86	596.1836	40.86	709.2739
40.87	509.496	40.87	554.1997
40.88	607.2157	40.88	582.1639
40.89	651.3672	40.89	571.9951
40.9	545.0839	40.9	516.0667
40.91	555.7729	40.91	597.4171
40.92	549.8566	40.92	538.9465
40.93	442.2847	40.93	653.3456
40.94	545.1871	40.94	528.7777
40.95	639.9302	40.95	544.0309
40.96	572.1564	40.96	424.5475
40.97	544.2771	40.97	531.3199
40.98	564.2397	40.98	531.3199
40.99	504.0121	40.99	653.3456
41	561.3331	41	582.1639
41.01	524.3577	41.01	444.8851
41.02	480.9774	41.02	711.8162
41.03	588.9843	41.03	521.1511
41.04	696.6519	41.04	790.6244
41.05	566.6038	41.05	477.9337
41.06	573.0826	41.06	533.8621
41.07	580.0832	41.07	727.0693
41.08	666.1884	41.08	627.9235
41.09	565.0103	41.09	610.1281
41.1	564.8828	41.1	396.5833
41.11	665.2772	41.11	668.5987
41.12	590.3404	41.12	676.2253
41.13	588.7737	41.13	510.9823
41.14	605.2628	41.14	452.5117
41.15	591.9302	41.15	554.1997
41.16	568.4068	41.16	587.2483
41.17	520.0613	41.17	607.5859
41.18	446.5781	41.18	699.1052
41.19	379.4711	41.19	765.2023
41.2	448.3473	41.2	701.6473
41.21	505.7188	41.21	709.2739
41.22	551.5153	41.22	587.2483
41.23	473.0506	41.23	391.4989
41.24	554.6574	41.24	366.0769
41.25	490.7752	41.25	597.4171
41.26	571.0297	41.26	577.0795
41.27	547.9474	41.27	622.8391
41.28	467.3349	41.28	541.4887
41.29	408.0241	41.29	546.5731
41.3	571.8228	41.3	549.1153
41.31	646.3184	41.31	655.8878
41.32	627.2364	41.32	777.9134
41.33	551.5215	41.33	721.9849
41.34	567.04	41.34	605.0437
41.35	561.0519	41.35	536.4043
41.36	539.0776	41.36	688.9363
41.37	567.2669	41.37	516.0667
41.38	565.8764	41.38	683.8519
41.39	562.2462	41.39	676.2253
41.4	502.6342	41.4	653.3456
41.41	591.7996	41.41	561.8263
41.42	582.5399	41.42	549.1153
41.43	519.7707	41.43	620.2969
41.44	536.1429	41.44	488.1025
41.45	607.9213	41.45	610.1281
41.46	678.0935	41.46	577.0795
41.47	609.5261	41.47	498.2713
41.48	557.5553	41.48	648.2611
41.49	458.072	41.49	777.9134
41.5	480.4243	41.5	650.8033
41.51	507.953	41.51	683.8519
41.52	512.3514	41.52	566.9107
41.53	592.1472	41.53	460.1383
41.54	593.6482	41.54	536.4043
41.55	465.0888	41.55	655.8878
41.56	527.7287	41.56	475.3915
41.57	489.0791	41.57	678.7676
41.58	450.6458	41.58	622.8391
41.59	560.2432	41.59	734.696
41.6	654.6707	41.6	503.3557
41.61	579.5151	41.61	556.7419
41.62	594.445	41.62	551.6575
41.63	536.9147	41.63	744.8647
41.64	439.0182	41.64	755.0336
41.65	510.8084	41.65	592.3327
41.66	519.7588	41.66	605.0437
41.67	528.2005	41.67	556.7419
41.68	546.3257	41.68	655.8878
41.69	520.1194	41.69	439.8007
41.7	470.1584	41.7	602.5015
41.71	456.3972	41.71	381.3301
41.72	551.5646	41.72	772.829
41.73	539.882	41.73	602.5015
41.74	557.4728	41.74	551.6575
41.75	555.1512	41.75	477.9337
41.76	603.0417	41.76	681.3098
41.77	521.2049	41.77	409.2943
41.78	481.4424	41.78	668.5987
41.79	530.8771	41.79	462.6805
41.8	543.1997	41.8	640.6345
41.81	463.9633	41.81	671.141
41.82	485.292	41.82	564.3685
41.83	571.7909	41.83	620.2969
41.84	527.3643	41.84	559.2841
41.85	484.0577	41.85	549.1153
41.86	513.9243	41.86	584.7061
41.87	593.7732	41.87	732.1538
41.88	521.6624	41.88	734.696
41.89	502.2036	41.89	696.563
41.9	517.7408	41.9	620.2969
41.91	589.383	41.91	538.9465
41.92	545.5495	41.92	528.7777
41.93	629.1524	41.93	635.5501
41.94	584.4541	41.94	633.0079
41.95	627.8794	41.95	488.1025
41.96	631.5366	41.96	467.7649
41.97	584.8784	41.97	485.5603
41.98	462.8609	41.98	612.6703
41.99	463.8477	41.99	701.6473
42	455.576	42	533.8621
42.01	591.8109	42.01	561.8263
42.02	624.631	42.02	533.8621
42.03	655.6425	42.03	635.5501
42.04	518.2534	42.04	526.2355
42.05	546.8013	42.05	615.2125
42.06	581.5363	42.06	470.3071
42.07	538.7351	42.07	394.0411
42.08	610.1929	42.08	457.5961
42.09	708.5357	42.09	485.5603
42.1	524.4915	42.1	577.0795
42.11	563.5985	42.11	536.4043
42.12	504.5659	42.12	653.3456
42.13	535.4174	42.13	653.3456
42.14	583.0886	42.14	615.2125
42.15	580.9256	42.15	770.2868
42.16	670.6686	42.16	579.6217
42.17	578.904	42.17	655.8878
42.18	609.5668	42.18	671.141
42.19	611.1365	42.19	653.3456
42.2	535.8798	42.2	597.4171
42.21	504.1102	42.21	660.9722
42.22	477.0546	42.22	493.1869
42.23	544.3015	42.23	485.5603
42.24	563.6198	42.24	416.9209
42.25	634.1926	42.25	495.7291
42.26	551.0546	42.26	775.3712
42.27	505.7145	42.27	582.1639
42.28	593.3201	42.28	744.8647
42.29	525.8595	42.29	488.1025
42.3	459.1588	42.3	483.0181
42.31	520.8762	42.31	488.1025
42.32	579.1183	42.32	577.0795
42.33	675.9906	42.33	571.9951
42.34	590.1304	42.34	676.2253
42.35	625.4503	42.35	638.0923
42.36	510.0622	42.36	612.6703
42.37	550.9965	42.37	574.5373
42.38	594.46	42.38	533.8621
42.39	565.3421	42.39	493.1869
42.4	497.8602	42.4	452.5117
42.41	604.0285	42.41	554.1997
42.42	760.3278	42.42	480.4759
42.43	607.695	42.43	592.3327
42.44	530.0291	42.44	485.5603
42.45	602.8574	42.45	485.5603
42.46	518.267	42.46	719.4427
42.47	589.2405	42.47	681.3098
42.48	524.3303	42.48	564.3685
42.49	699.4053	42.49	513.5245
42.5	577.9691	42.5	508.4401
42.51	589.433	42.51	455.0539
42.52	523.7578	42.52	554.1997
42.53	581.5955	42.53	498.2713
42.54	647.2377	42.54	505.8979
42.55	495.2136	42.55	704.1895
42.56	506.3319	42.56	465.2227
42.57	528.6636	42.57	694.0208
42.58	452.6106	42.58	465.2227
42.59	534.4474	42.59	533.8621
42.6	574.21	42.6	495.7291
42.61	560.8519	42.61	577.0795
42.62	530.9572	42.62	536.4043
42.63	626.6564	42.63	404.2099
42.64	616.6599	42.64	528.7777
42.65	584.6803	42.65	602.5015
42.66	547.8012	42.66	574.5373
42.67	461.9635	42.67	462.6805
42.68	668.2806	42.68	518.6089
42.69	601.9599	42.69	742.3226
42.7	592.0297	42.7	683.8519
42.71	725.6342	42.71	493.1869
42.72	616.4411	42.72	485.5603
42.73	495.7666	42.73	434.7163
42.74	531.254	42.74	729.6116
42.75	472.4688	42.75	666.0565
42.76	557.0372	42.76	704.1895
42.77	496.829	42.77	569.4529
42.78	535.5861	42.78	655.8878
42.79	529.076	42.79	617.7548
42.8	594.0356	42.8	538.9465
42.81	546.7775	42.81	724.5272
42.82	563.8172	42.82	699.1052
42.83	599.4414	42.83	406.7521
42.84	550.2447	42.84	490.6447
42.85	502.2036	42.85	561.8263
42.86	502.2036	42.86	533.8621
42.87	588.225	42.87	599.9594
42.88	607.5469	42.88	663.5143
42.89	506.017	42.89	653.3456
42.9	592.5002	42.9	650.8033
42.91	509.3391	42.91	597.4171
42.92	506.1451	42.92	536.4043
42.93	513.0925	42.93	546.5731
42.94	538.3896	42.94	371.1613
42.95	512.4526	42.95	541.4887
42.96	536.1942	42.96	444.8851
42.97	486.5275	42.97	676.2253
42.98	477.0221	42.98	605.0437
42.99	467.158	42.99	607.5859
43	548.9436	43	556.7419
43.01	536.7966	43.01	620.2969
43.02	532.7289	43.02	683.8519
43.03	556.8073	43.03	673.6832
43.04	533.8981	43.04	564.3685
43.05	504.7952	43.05	833.8418
43.06	478.2839	43.06	536.4043
43.07	467.0693	43.07	523.6933
43.08	573.9888	43.08	510.9823
43.09	530.0073	43.09	739.7803
43.1	563.4791	43.1	683.8519
43.11	491.0227	43.11	475.3915
43.12	494.0062	43.12	554.1997
43.13	489.4741	43.13	498.2713
43.14	503.2816	43.14	541.4887
43.15	635.8493	43.15	406.7521
43.16	564.609	43.16	493.1869
43.17	618.5316	43.17	686.3941
43.18	499.8131	43.18	640.6345
43.19	571.7765	43.19	701.6473
43.2	532.027	43.2	427.0897
43.21	530.2878	43.21	582.1639
43.22	664.9385	43.22	503.3557
43.23	472.8175	43.23	648.2611
43.24	567.8706	43.24	653.3456
43.25	585.8995	43.25	597.4171
43.26	576.5717	43.26	696.563
43.27	580.0382	43.27	551.6575
43.28	618.1047	43.28	599.9594
43.29	541.8855	43.29	592.3327
43.3	489.0623	43.3	554.1997
43.31	445.3476	43.31	584.7061
43.32	451.9626	43.32	607.5859
43.33	543.2303	43.33	414.3787
43.34	626.0677	43.34	546.5731
43.35	502.8322	43.35	676.2253
43.36	467.1056	43.36	655.8878
43.37	609.743	43.37	526.2355
43.38	482.9709	43.38	348.2815
43.39	563.0204	43.39	574.5373
43.4	564.0272	43.4	627.9235
43.41	497.0809	43.41	541.4887
43.42	470.0121	43.42	688.9363
43.43	411.7425	43.43	640.6345
43.44	469.0947	43.44	612.6703
43.45	519.4288	43.45	592.3327
43.46	594.2075	43.46	571.9951
43.47	508.3436	43.47	569.4529
43.48	589.7704	43.48	516.0667
43.49	610.9529	43.49	686.3941
43.5	580.6851	43.5	658.4299
43.51	480.3618	43.51	508.4401
43.52	468.826	43.52	612.6703
43.53	545.2483	43.53	577.0795
43.54	654.4413	43.54	533.8621
43.55	614.8181	43.55	688.9363
43.56	608.0244	43.56	658.4299
43.57	609.768	43.57	650.8033
43.58	563.1817	43.58	757.5757
43.59	618.4271	43.59	701.6473
43.6	547.3631	43.6	460.1383
43.61	539.0908	43.61	587.2483
43.62	647.3201	43.62	592.3327
43.63	640.722	43.63	696.563
43.64	653.3608	43.64	516.0667
43.65	604.4053	43.65	577.0795
43.66	586.4608	43.66	500.8135
43.67	546.1213	43.67	505.8979
43.68	547.2606	43.68	526.2355
43.69	522.2898	43.69	475.3915
43.7	568.903	43.7	627.9235
43.71	500.2437	43.71	668.5987
43.72	619.4696	43.72	635.5501
43.73	619.3196	43.73	701.6473
43.74	590.4178	43.74	711.8162
43.75	544.5478	43.75	800.7932
43.76	591.8446	43.76	671.141
43.77	576.7504	43.77	633.0079
43.78	591.2935	43.78	523.6933
43.79	572.2133	43.79	597.4171
43.8	538.5789	43.8	663.5143
43.81	528.6523	43.81	760.118
43.82	486.3444	43.82	505.8979
43.83	598.4434	43.83	538.9465
43.84	599.2358	43.84	673.6832
43.85	642.7868	43.85	638.0923
43.86	571.1047	43.86	594.8749
43.87	539.1389	43.87	625.3813
43.88	516.4522	43.88	594.8749
43.89	448.9697	43.89	483.0181
43.9	491.9963	43.9	681.3098
43.91	609.393	43.91	622.8391
43.92	495.5479	43.92	699.1052
43.93	467.6205	43.93	551.6575
43.94	397.6738	43.94	599.9594
43.95	483.3428	43.95	699.1052
43.96	650.2211	43.96	444.8851
43.97	573.1482	43.97	531.3199
43.98	563.4954	43.98	477.9337
43.99	553.7069	43.99	467.7649
44	496.829	44	663.5143
44.01	547.988	44.01	584.7061
44.02	529.9904	44.02	622.8391
44.03	474.7442	44.03	648.2611
44.04	491.9545	44.04	721.9849
44.05	523.7353	44.05	589.7905
44.06	590.2404	44.06	605.0437
44.07	510.8128	44.07	716.9006
44.08	561.6199	44.08	607.5859
44.09	520.3806	44.09	607.5859
44.1	426.868	44.1	632.3724
44.11	484.9583	44.11	737.8737
44.12	531.6702	44.12	556.7419
44.13	574.8075	44.13	564.3685
44.14	603.8148	44.14	462.6805
44.15	539.9226	44.15	554.1997
44.16	524.2672	44.16	533.8621
44.17	564.5646	44.17	617.7548
44.18	521.1543	44.18	701.6473
44.19	542.9086	44.19	569.4529
44.2	632.7846	44.2	531.3199
44.21	566.0308	44.21	475.3915
44.22	569.3192	44.22	556.7419
44.23	602.9436	44.23	622.8391
44.24	583.4035	44.24	559.2841
44.25	553.3557	44.25	584.7061
44.26	684.7798	44.26	643.1768
44.27	553.3626	44.27	597.4171
44.28	586.9608	44.28	625.3813
44.29	524.4671	44.29	683.8519
44.3	579.9432	44.3	513.5245
44.31	611.7928	44.31	505.8979
44.32	640.4239	44.32	561.8263
44.33	612.9277	44.33	694.0208
44.34	537.8903	44.34	462.6805
44.35	637.4866	44.35	551.6575
44.36	557.4272	44.36	551.6575
44.37	577.0717	44.37	655.8878
44.38	586.2808	44.38	564.3685
44.39	497.6358	44.39	602.5015
44.4	550.8928	44.4	556.7419
44.41	534.0443	44.41	495.7291
44.42	521.2774	44.42	416.9209
44.43	617.4703	44.43	495.7291
44.44	639.124	44.44	561.8263
44.45	490.564	44.45	516.0667
44.46	495.3011	44.46	597.4171
44.47	489.6022	44.47	645.7189
44.48	505.7857	44.48	579.6217
44.49	499.5788	44.49	658.4299
44.5	627.6101	44.5	510.9823
44.51	503.4566	44.51	630.4658
44.52	514.1249	44.52	739.7803
44.53	664.8123	44.53	788.0822
44.54	715.4888	44.54	704.1895
44.55	602.8311	44.55	566.9107
44.56	579.0895	44.56	388.9567
44.57	471.6864	44.57	544.0309
44.58	455.7685	44.58	516.0667
44.59	538.2208	44.59	561.8263
44.6	485.8901	44.6	569.4529
44.61	541.7524	44.61	569.4529
44.62	591.3234	44.62	462.6805
44.63	527.6587	44.63	536.4043
44.64	551.5778	44.64	602.5015
44.65	617.5942	44.65	503.3557
44.66	540.2369	44.66	719.4427
44.67	501.2068	44.67	485.5603
44.68	537.1709	44.68	607.5859
44.69	544.5291	44.69	434.7163
44.7	644.5029	44.7	531.3199
44.71	563.1841	44.71	442.3429
44.72	649.6805	44.72	711.8162
44.73	544.0509	44.73	699.1052
44.74	509.2185	44.74	762.6602
44.75	491.2521	44.75	452.5117
44.76	627.2375	44.76	442.3429
44.77	671.4766	44.77	625.3813
44.78	648.0807	44.78	366.0769
44.79	549.5173	44.79	467.7649
44.8	589.0168	44.8	470.3071
44.81	511.4202	44.81	556.7419
44.82	555.0424	44.82	605.0437
44.83	492.9419	44.83	556.7419
44.84	502.2154	44.84	495.7291
44.85	406.6899	44.85	523.6933
44.86	473.1593	44.86	457.5961
44.87	607.0532	44.87	536.4043
44.88	551.3334	44.88	655.8878
44.89	494.9317	44.89	475.3915
44.9	490.7671	44.9	554.1997
44.91	615.1368	44.91	480.4759
44.92	528.5067	44.92	610.1281
44.93	522.256	44.93	452.5117
44.94	541.9418	44.94	676.2253
44.95	525.507	44.95	480.4759
44.96	529.2036	44.96	500.8135
44.97	528.5667	44.97	633.0079
44.98	470.9783	44.98	597.4171
44.99	446.1481	44.99	625.3813
45	468.6529	45	452.5117
45.01	484.3777	45.01	480.4759
45.02	451.0833	45.02	399.1255
45.03	469.2484	45.03	457.5961
45.04	465.835	45.04	663.5143
45.05	510.2022	45.05	566.9107
45.06	563.1004	45.06	513.5245
45.07	551.2584	45.07	526.2355
45.08	586.1895	45.08	404.2099
45.09	506.3376	45.09	457.5961
45.1	510.8328	45.1	432.1741
45.11	507.1875	45.11	427.0897
45.12	522.1692	45.12	373.7035
45.13	547.9462	45.13	472.8493
45.14	521.2299	45.14	559.2841
45.15	502.3754	45.15	533.8621
45.16	512.5944	45.16	599.9594
45.17	598.5484	45.17	681.3098
45.18	496.2603	45.18	673.6832
45.19	489.4235	45.19	599.9594
45.2	535.2487	45.2	518.6089
45.21	563.0398	45.21	526.2355
45.22	509.1223	45.22	475.3915
45.23	545.887	45.23	610.1281
45.24	432.9175	45.24	559.2841
45.25	513.8456	45.25	531.3199
45.26	558.3677	45.26	386.4145
45.27	561.3699	45.27	704.1895
45.28	524.9052	45.28	485.5603
45.29	564.5122	45.29	643.1768
45.3	503.2184	45.3	582.1639
45.31	518.8895	45.31	427.0897
45.32	541.1693	45.32	495.7291
45.33	443.2478	45.33	508.4401
45.34	456.8202	45.34	526.2355
45.35	492.8363	45.35	688.9363
45.36	521.8411	45.36	498.2713
45.37	571.1878	45.37	538.9465
45.38	533.5787	45.38	566.9107
45.39	551.0946	45.39	551.6575
45.4	479.4957	45.4	566.9107
45.41	581.6837	45.41	569.4529
45.42	496.4128	45.42	711.8162
45.43	529.8741	45.43	465.2227
45.44	631.3434	45.44	462.6805
45.45	529.311	45.45	538.9465
45.46	467.8386	45.46	531.3199
45.47	533.1169	45.47	599.9594
45.48	485.5238	45.48	645.7189
45.49	450.5033	45.49	330.4861
45.5	481.7054	45.5	622.8391
45.51	596.8323	45.51	617.7548
45.52	559.0107	45.52	556.7419
45.53	516.6135	45.53	620.2969
45.54	562.9417	45.54	523.6933
45.55	636.913	45.55	544.0309
45.56	548.8086	45.56	673.6832
45.57	587.3094	45.57	638.0923
45.58	504.2584	45.58	701.6473
45.59	448.1504	45.59	551.6575
45.6	619.4427	45.6	510.9823
45.61	558.2628	45.61	508.4401
45.62	502.3554	45.62	472.8493
45.63	492.2126	45.63	503.3557
45.64	602.5068	45.64	472.8493
45.65	551.9964	45.65	521.1511
45.66	568.4812	45.66	599.9594
45.67	564.101	45.67	752.4914
45.68	550.496	45.68	648.2611
45.69	515.5704	45.69	434.7163
45.7	627.0126	45.7	460.1383
45.71	582.5123	45.71	485.5603
45.72	528.8417	45.72	559.2841
45.73	578.1047	45.73	640.6345
45.74	481.9185	45.74	561.8263
45.75	507.3443	45.75	495.7291
45.76	511.6664	45.76	577.0795
45.77	461.3192	45.77	447.4273
45.78	510.4396	45.78	516.0667
45.79	482.4191	45.79	635.5501
45.8	595.4324	45.8	544.0309
45.81	563.4598	45.81	510.9823
45.82	514.6281	45.82	472.8493
45.83	540.7331	45.83	503.3557
45.84	585.8134	45.84	526.2355
45.85	492.1888	45.85	386.4145
45.86	484.6808	45.86	472.8493
45.87	521.443	45.87	594.8749
45.88	480.6786	45.88	485.5603
45.89	529.7878	45.89	360.9925
45.9	470.9146	45.9	416.9209
45.91	499.4475	45.91	427.0897
45.92	511.6646	45.92	711.8162
45.93	539.1845	45.93	396.5833
45.94	428.686	45.94	399.1255
45.95	421.8072	45.95	549.1153
45.96	559.6194	45.96	676.2253
45.97	571.4784	45.97	566.9107
45.98	505.3958	45.98	477.9337
45.99	508.3555	45.99	396.5833
46	523.0291	46	528.7777
46.01	574.0875	46.01	442.3429
46.02	557.9484	46.02	533.8621
46.03	594.5463	46.03	638.0923
46.04	548.828	46.04	597.4171
46.05	577.431	46.05	696.563
46.06	486.3156	46.06	533.8621
46.07	539.3551	46.07	544.0309
46.08	486.6343	46.08	566.9107
46.09	443.9745	46.09	569.4529
46.1	538.9221	46.1	640.6345
46.11	557.7084	46.11	455.0539
46.12	540.3856	46.12	480.4759
46.13	504.2815	46.13	363.5347
46.14	586.6138	46.14	612.6703
46.15	553.1201	46.15	561.8263
46.16	464.2389	46.16	549.1153
46.17	432.51	46.17	531.3199
46.18	432.2931	46.18	510.9823
46.19	401.2216	46.19	668.5987
46.2	501.033	46.2	513.5245
46.21	632.2172	46.21	790.6244
46.22	551.239	46.22	620.2969
46.23	524.249	46.23	660.9722
46.24	600.6976	46.24	546.5731
46.25	605.5696	46.25	510.9823
46.26	543.7328	46.26	472.8493
46.27	459.22	46.27	432.1741
46.28	468.3223	46.28	551.6575
46.29	451.3757	46.29	266.9311
46.3	455.0341	46.3	508.4401
46.31	467.1012	46.31	460.1383
46.32	502.2036	46.32	714.3584
46.33	535.5755	46.33	752.4914
46.34	527.3731	46.34	538.9465
46.35	488.1611	46.35	472.8493
46.36	519.5513	46.36	485.5603
46.37	454.7529	46.37	505.8979
46.38	414.4148	46.38	544.0309
46.39	487.2299	46.39	477.9337
46.4	524.7502	46.4	485.5603
46.41	540.7194	46.41	648.2611
46.42	479.8306	46.42	724.5272
46.43	551.1752	46.43	411.8365
46.44	528.2311	46.44	544.0309
46.45	525.7739	46.45	480.4759
46.46	428.8666	46.46	449.9695
46.47	552.817	46.47	447.4273
46.48	535.6761	46.48	536.4043
46.49	522.7029	46.49	531.3199
46.5	530.3103	46.5	422.0053
46.51	412.0281	46.51	584.7061
46.52	555.5192	46.52	485.5603
46.53	605.1678	46.53	521.1511
46.54	540.2782	46.54	582.1639
46.55	596.6692	46.55	483.0181
46.56	440.6092	46.56	503.3557
46.57	533.1625	46.57	455.0539
46.58	512.4751	46.58	518.6089
46.59	564.5584	46.59	493.1869
46.6	487.9617	46.6	399.1255
46.61	492.2838	46.61	564.3685
46.62	514.173	46.62	483.0181
46.63	488.2492	46.63	681.3098
46.64	621.1325	46.64	605.0437
46.65	556.931	46.65	340.6549
46.66	504.9495	46.66	429.6319
46.67	425.9487	46.67	589.7905
46.68	466.8287	46.68	610.1281
46.69	602.4186	46.69	699.1052
46.7	434.8916	46.7	676.2253
46.71	399.0456	46.71	475.3915
46.72	486.1475	46.72	322.8595
46.73	525.027	46.73	571.9951
46.74	518.6407	46.74	645.7189
46.75	527.5919	46.75	490.6447
46.76	536.426	46.76	574.5373
46.77	409.9202	46.77	518.6089
46.78	453.9018	46.78	366.0769
46.79	498.4539	46.79	577.0795
46.8	583.2729	46.8	663.5143
46.81	522.6985	46.81	617.7548
46.82	496.5878	46.82	770.2868
46.83	497.7821	46.83	526.2355
46.84	519.0526	46.84	648.2611
46.85	547.9193	46.85	422.0053
46.86	467.3517	46.86	546.5731
46.87	532.6539	46.87	462.6805
46.88	676.3005	46.88	483.0181
46.89	521.2787	46.89	505.8979
46.9	445.8257	46.9	508.4401
46.91	498.0008	46.91	633.0079
46.92	487.6755	46.92	526.2355
46.93	542.1454	46.93	597.4171
46.94	573.0514	46.94	503.3557
46.95	574.2437	46.95	666.0565
46.96	539.0421	46.96	531.3199
46.97	505.0614	46.97	544.0309
46.98	534.1912	46.98	513.5245
46.99	503.4728	46.99	455.0539
47	497.5652	47	607.5859
47.01	523.0766	47.01	577.0795
47.02	504.0415	47.02	462.6805
47.03	471.3014	47.03	447.4273
47.04	524.4352	47.04	429.6319
47.05	429.5409	47.05	782.9977
47.06	485.2289	47.06	566.9107
47.07	546.1188	47.07	706.7318
47.08	518.5396	47.08	554.1997
47.09	471.4564	47.09	510.9823
47.1	433.978	47.1	544.0309
47.11	553.9325	47.11	602.5015
47.12	509.361	47.12	432.1741
47.13	426.4731	47.13	460.1383
47.14	427.7042	47.14	574.5373
47.15	397.6295	47.15	607.5859
47.16	554.4175	47.16	610.1281
47.17	521.9736	47.17	627.9235
47.18	495.1048	47.18	577.0795
47.19	576.8904	47.19	551.6575
47.2	504.4065	47.2	424.5475
47.21	514.7218	47.21	477.9337
47.22	500.1487	47.22	612.6703
47.23	556.2567	47.23	488.1025
47.24	468.6598	47.24	503.3557
47.25	470.5452	47.25	597.4171
47.26	563.6979	47.26	485.5603
47.27	503.7271	47.27	414.3787
47.28	455.536	47.28	299.9797
47.29	570.0247	47.29	320.3173
47.3	562.3349	47.3	574.5373
47.31	412.0213	47.31	699.1052
47.32	460.2699	47.32	694.0208
47.33	479.6663	47.33	495.7291
47.34	477.4458	47.34	556.7419
47.35	539.0445	47.35	551.6575
47.36	542.3092	47.36	388.9567
47.37	450.6677	47.37	508.4401
47.38	527.1394	47.38	386.4145
47.39	513.1094	47.39	508.4401
47.4	474.298	47.4	528.7777
47.41	487.2043	47.41	510.9823
47.42	518.5714	47.42	508.4401
47.43	486.2388	47.43	401.6677
47.44	527.4968	47.44	546.5731
47.45	483.439	47.45	480.4759
47.46	533.87	47.46	574.5373
47.47	512.3038	47.47	429.6319
47.48	488.9104	47.48	388.9567
47.49	481.721	47.49	510.9823
47.5	445.3369	47.5	422.0053
47.51	543.3085	47.51	424.5475
47.52	506.9962	47.52	373.7035
47.53	549.9929	47.53	490.6447
47.54	560.7944	47.54	472.8493
47.55	600.0432	47.55	325.4016
47.56	465.202	47.56	500.8135
47.57	430.179	47.57	546.5731
47.58	545.4146	47.58	531.3199
47.59	498.2133	47.59	350.8237
47.6	510.4134	47.6	343.1971
47.61	484.174	47.61	345.7393
47.62	470.5734	47.62	559.2841
47.63	575.9954	47.63	483.0181
47.64	514.2781	47.64	538.9465
47.65	411.5713	47.65	460.1383
47.66	455.0829	47.66	447.4273
47.67	460.9542	47.67	554.1997
47.68	506.5663	47.68	587.2483
47.69	493.0481	47.69	483.0181
47.7	577.9609	47.7	663.5143
47.71	487.8211	47.71	495.7291
47.72	532.9457	47.72	485.5603
47.73	510.1247	47.73	505.8979
47.74	629.9655	47.74	419.4631
47.75	560.6119	47.75	442.3429
47.76	509.9409	47.76	518.6089
47.77	547.6056	47.77	510.9823
47.78	553.5457	47.78	579.6217
47.79	547.4169	47.79	518.6089
47.8	503.2416	47.8	472.8493
47.81	546.4232	47.81	467.7649
47.82	458.5138	47.82	396.5833
47.83	483.1897	47.83	368.6191
47.84	412.9562	47.84	472.8493
47.85	506.1538	47.85	559.2841
47.86	502.2036	47.86	409.2943
47.87	526.4244	47.87	688.9363
47.88	569.7448	47.88	554.1997
47.89	533.1888	47.89	546.5731
47.9	450.3102	47.9	495.7291
47.91	477.0777	47.91	470.3071
47.92	517.8252	47.92	485.5603
47.93	533.9231	47.93	381.3301
47.94	522.5491	47.94	490.6447
47.95	439.7125	47.95	668.5987
47.96	459.8293	47.96	335.5705
47.97	514.9805	47.97	516.0667
47.98	528.3417	47.98	620.2969
47.99	420.2605	47.99	452.5117
48	445.4557	48	480.4759
48.01	461.2073	48.01	559.2841
48.02	508.6248	48.02	533.8621
48.03	499.5388	48.03	546.5731
48.04	475.5566	48.04	460.1383
48.05	471.4564	48.05	518.6089
48.06	516.3585	48.06	582.1639
48.07	617.8266	48.07	536.4043
48.08	559.3326	48.08	635.5501
48.09	518.3389	48.09	615.2125
48.1	456.6296	48.1	574.5373
48.11	424.8901	48.11	480.4759
48.12	535.4899	48.12	521.1511
48.13	414.0623	48.13	493.1869
48.14	449.7084	48.14	488.1025
48.15	436.9877	48.15	630.4658
48.16	436.4884	48.16	419.4631
48.17	456.3196	48.17	528.7777
48.18	541.7155	48.18	655.8878
48.19	504.0403	48.19	582.1639
48.2	484.0309	48.2	569.4529
48.21	487.7786	48.21	462.6805
48.22	533.3663	48.22	465.2227
48.23	544.1722	48.23	556.7419
48.24	530.3209	48.24	462.6805
48.25	490.5371	48.25	483.0181
48.26	479.7425	48.26	434.7163
48.27	463.179	48.27	516.0667
48.28	417.1164	48.28	475.3915
48.29	550.5553	48.29	681.3098
48.3	474.2261	48.3	373.7035
48.31	478.6776	48.31	432.1741
48.32	480.3824	48.32	465.2227
48.33	464.7126	48.33	432.1741
48.34	529.1592	48.34	391.4989
48.35	518.0396	48.35	564.3685
48.36	480.2537	48.36	518.6089
48.37	515.7254	48.37	455.0539
48.38	510.4322	48.38	518.6089
48.39	416.4146	48.39	528.7777
48.4	482.7516	48.4	564.3685
48.41	420.1693	48.41	694.0208
48.42	532.0995	48.42	444.8851
48.43	563.2136	48.43	655.8878
48.44	622.2881	48.44	460.1383
48.45	457.1259	48.45	498.2713
48.46	392.5993	48.46	437.2585
48.47	495.5323	48.47	605.0437
48.48	575.9149	48.48	434.7163
48.49	451.3127	48.49	317.7751
48.5	417.397	48.5	518.6089
48.51	474.1436	48.51	406.7521
48.52	515.7429	48.52	404.2099
48.53	428.3873	48.53	495.7291
48.54	419.19	48.54	526.2355
48.55	509.1873	48.55	493.1869
48.56	524.4471	48.56	683.8519
48.57	381.8297	48.57	516.0667
48.58	517.4796	48.58	488.1025
48.59	558.1515	48.59	470.3071
48.6	487.7968	48.6	574.5373
48.61	465.4244	48.61	429.6319
48.62	358.8449	48.62	513.5245
48.63	409.5858	48.63	333.0283
48.64	526.3676	48.64	483.0181
48.65	520.8262	48.65	650.8033
48.66	517.559	48.66	493.1869
48.67	558.9583	48.67	485.5603
48.68	536.656	48.68	327.9439
48.69	460.2881	48.69	483.0181
48.7	525.6714	48.7	455.0539
48.71	542.8692	48.71	554.1997
48.72	487.8549	48.72	444.8851
48.73	520.72	48.73	462.6805
48.74	438.3413	48.74	396.5833
48.75	398.2688	48.75	457.5961
48.76	412.1525	48.76	592.3327
48.77	485.1508	48.77	503.3557
48.78	504.529	48.78	434.7163
48.79	460.7967	48.79	462.6805
48.8	474.1905	48.8	521.1511
48.81	460.3568	48.81	297.4375
48.82	504.5977	48.82	638.0923
48.83	405.5468	48.83	620.2969
48.84	535.638	48.84	467.7649
48.85	491.9401	48.85	483.0181
48.86	483.7571	48.86	327.9439
48.87	463.6877	48.87	411.8365
48.88	404.9469	48.88	676.2253
48.89	381.1741	48.89	587.2483
48.9	419.7556	48.9	605.0437
48.91	427.388	48.91	627.9235
48.92	306.9716	48.92	434.7163
48.93	416.2027	48.93	353.3659
48.94	418.6225	48.94	505.8979
48.95	375.5346	48.95	493.1869
48.96	546.9182	48.96	399.1255
48.97	583.821	48.97	457.5961
48.98	533.5181	48.98	610.1281
48.99	485.9682	48.99	683.8519
49	452.1457	49	353.3659
49.01	451.0551	49.01	536.4043
49.02	479.8012	49.02	551.6575
49.03	471.562	49.03	388.9567
49.04	444.7807	49.04	366.0769
49.05	362.4946	49.05	348.2815
49.06	474.1986	49.06	470.3071
49.07	451.7444	49.07	630.4658
49.08	422.7334	49.08	597.4171
49.09	546.905	49.09	589.7905
49.1	397.8745	49.1	518.6089
49.11	479.2913	49.11	508.4401
49.12	451.6313	49.12	544.0309
49.13	514.8342	49.13	442.3429
49.14	543.1997	49.14	373.7035
49.15	533.0757	49.15	419.4631
49.16	528.9929	49.16	391.4989
49.17	524.8802	49.17	617.7548
49.18	464.1108	49.18	526.2355
49.19	409.0147	49.19	383.8723
49.2	461.2505	49.2	561.8263
49.21	463.6758	49.21	571.9951
49.22	540.5375	49.22	427.0897
49.23	506.1519	49.23	460.1383
49.24	520.9462	49.24	521.1511
49.25	427.8667	49.25	617.7548
49.26	415.9065	49.26	399.1255
49.27	409.9621	49.27	455.0539
49.28	479.88	49.28	378.7879
49.29	584.0085	49.29	437.2585
49.3	490.1684	49.3	554.1997
49.31	374.6472	49.31	622.8391
49.32	407.4061	49.32	541.4887
49.33	423.992	49.33	528.7777
49.34	437.4139	49.34	475.3915
49.35	371.6762	49.35	360.9925
49.36	435.3766	49.36	594.8749
49.37	476.4247	49.37	488.1025
49.38	478.2858	49.38	378.7879
49.39	414.4392	49.39	490.6447
49.4	433.9667	49.4	437.2585
49.41	522.108	49.41	551.6575
49.42	461.0136	49.42	480.4759
49.43	466.2825	49.43	485.5603
49.44	518.4295	49.44	434.7163
49.45	494.7849	49.45	462.6805
49.46	403.4908	49.46	645.7189
49.47	534.5555	49.47	493.1869
49.48	485.5438	49.48	449.9695
49.49	485.6744	49.49	536.4043
49.5	498.7364	49.5	549.1153
49.51	414.0217	49.51	371.1613
49.52	461.5048	49.52	523.6933
49.53	478.6495	49.53	531.3199
49.54	462.9409	49.54	493.1869
49.55	423.5158	49.55	505.8979
49.56	456.3353	49.56	508.4401
49.57	520.2425	49.57	472.8493
49.58	482.5491	49.58	414.3787
49.59	532.4957	49.59	477.9337
49.6	595.3924	49.6	470.3071
49.61	485.5063	49.61	414.3787
49.62	500.6412	49.62	513.5245
49.63	475.556	49.63	635.5501
49.64	479.3532	49.64	526.2355
49.65	398.525	49.65	633.0079
49.66	483.5334	49.66	615.2125
49.67	500.5637	49.67	556.7419
49.68	506.3038	49.68	442.3429
49.69	478.8976	49.69	569.4529
49.7	436.9439	49.7	447.4273
49.71	448.1598	49.71	551.6575
49.72	542.4911	49.72	498.2713
49.73	494.7686	49.73	470.3071
49.74	488.1736	49.74	574.5373
49.75	589.7943	49.75	447.4273
49.76	513.8	49.76	391.4989
49.77	445.0201	49.77	422.0053
49.78	425.4919	49.78	480.4759
49.79	487.6487	49.79	434.7163
49.8	473.3056	49.8	302.5219
49.81	451.1851	49.81	480.4759
49.82	403.822	49.82	401.6677
49.83	379.2149	49.83	333.0283
49.84	541.9343	49.84	467.7649
49.85	514.1062	49.85	505.8979
49.86	460.7974	49.86	472.8493
49.87	442.5422	49.87	574.5373
49.88	366.7236	49.88	536.4043
49.89	412.395	49.89	564.3685
49.9	549.4048	49.9	427.0897
49.91	531.8458	49.91	371.1613
49.92	494.1299	49.92	544.0309
49.93	483.2528	49.93	498.2713
49.94	474.5124	49.94	363.5347
49.95	495.7554	49.95	488.1025
49.96	503.5266	49.96	615.2125
49.97	527.8199	49.97	523.6933
49.98	456.5828	49.98	579.6217
49.99	427.7548	49.99	358.4503
50	454.8586	50	414.3787
50.01	530.1947	50.01	605.0437
50.02	426.2262	50.02	559.2841
50.03	450.0677	50.03	442.3429
50.04	389.299	50.04	355.9081
50.05	443.1034	50.05	310.1485
50.06	445.9756	50.06	518.6089
50.07	427.023	50.07	495.7291
50.08	496.3079	50.08	577.0795
50.09	512.4589	50.09	536.4043
50.1	424.8445	50.1	671.141
50.11	512.1089	50.11	549.1153
50.12	371.8119	50.12	599.9594
50.13	455.8803	50.13	521.1511
50.14	453.5143	50.14	455.0539
50.15	462.0042	50.15	518.6089
50.16	521.8005	50.16	546.5731
50.17	428.6129	50.17	566.9107
50.18	437.0233	50.18	462.6805
50.19	380.1523	50.19	411.8365
50.2	451.2883	50.2	371.1613
50.21	443.1228	50.21	455.0539
50.22	422.9852	50.22	556.7419
50.23	465.3163	50.23	462.6805
50.24	506.4582	50.24	429.6319
50.25	471.5583	50.25	409.2943
50.26	490.5121	50.26	655.8878
50.27	495.9979	50.27	566.9107
50.28	421.1836	50.28	477.9337
50.29	450.4539	50.29	325.4016
50.3	444.8857	50.3	358.4503
50.31	460.2818	50.31	401.6677
50.32	549.9816	50.32	477.9337
50.33	529.856	50.33	399.1255
50.34	607.6069	50.34	546.5731
50.35	547.4856	50.35	498.2713
50.36	462.7203	50.36	505.8979
50.37	434.7585	50.37	544.0309
50.38	450.8333	50.38	477.9337
50.39	499.8019	50.39	467.7649
50.4	526.0626	50.4	503.3557
50.41	430.4602	50.41	615.2125
50.42	470.0784	50.42	452.5117
50.43	417.1658	50.43	444.8851
50.44	496.829	50.44	678.7676
50.45	487.1268	50.45	462.6805
50.46	477.7571	50.46	498.2713
50.47	513.9243	50.47	383.8723
50.48	550.449	50.48	330.4861
50.49	429.5484	50.49	485.5603
50.5	457.1165	50.5	544.0309
50.51	407.4817	50.51	495.7291
50.52	520.5925	50.52	470.3071
50.53	573.5563	50.53	521.1511
50.54	456.7915	50.54	404.2099
50.55	471.9726	50.55	350.8237
50.56	433.4443	50.56	630.4658
50.57	462.3779	50.57	510.9823
50.58	578.309	50.58	594.8749
50.59	563.6997	50.59	592.3327
50.6	480.0025	50.6	625.3813
50.61	543.5197	50.61	594.8749
50.62	435.1741	50.62	465.2227
50.63	510.0247	50.63	340.6549
50.64	435.7566	50.64	521.1511
50.65	475.8079	50.65	460.1383
50.66	402.2547	50.66	429.6319
50.67	500.0725	50.67	551.6575
50.68	505.4664	50.68	444.8851
50.69	447.2924	50.69	622.8391
50.7	395.0828	50.7	419.4631
50.71	351.4344	50.71	582.1639
50.72	468.9466	50.72	432.1741
50.73	416.2677	50.73	549.1153
50.74	435.7303	50.74	427.0897
50.75	414.1642	50.75	424.5475
50.76	443.3096	50.76	533.8621
50.77	507.5974	50.77	460.1383
50.78	483.3578	50.78	305.0641
50.79	490.5833	50.79	427.0897
50.8	529.0473	50.8	411.8365
50.81	491.7089	50.81	549.1153
50.82	457.762	50.82	444.8851
50.83	604.7803	50.83	533.8621
50.84	479.1013	50.84	549.1153
50.85	427.4292	50.85	477.9337
50.86	410.4945	50.86	592.3327
50.87	469.9022	50.87	449.9695
50.88	585.384	50.88	427.0897
50.89	480.3306	50.89	427.0897
50.9	480.1731	50.9	409.2943
50.91	483.7603	50.91	460.1383
50.92	513.1075	50.92	592.3327
50.93	437.4283	50.93	485.5603
50.94	516.1866	50.94	503.3557
50.95	487.2856	50.95	579.6217
50.96	609.3149	50.96	500.8135
50.97	614.1463	50.97	452.5117
50.98	513.6075	50.98	322.8595
50.99	398.7712	50.99	483.0181
51	371.6313	51	472.8493
51.01	480.4556	51.01	503.3557
51.02	469.3078	51.02	579.6217
51.03	515.8917	51.03	376.2457
51.04	486.7444	51.04	416.9209
51.05	401.1973	51.05	391.4989
51.06	488.1842	51.06	528.7777
51.07	471.5707	51.07	495.7291
51.08	472.5819	51.08	523.6933
51.09	432.6506	51.09	582.1639
51.1	530.1453	51.1	447.4273
51.11	476.5872	51.11	462.6805
51.12	490.1528	51.12	432.1741
51.13	487.2399	51.13	444.8851
51.14	481.7054	51.14	411.8365
51.15	489.7791	51.15	460.1383
51.16	487.1068	51.16	574.5373
51.17	468.1948	51.17	607.5859
51.18	470.9821	51.18	556.7419
51.19	486.3332	51.19	477.9337
51.2	491.3252	51.2	592.3327
51.21	469.5403	51.21	556.7419
51.22	567.1063	51.22	531.3199
51.23	517.7177	51.23	386.4145
51.24	475.6766	51.24	348.2815
51.25	496.9872	51.25	452.5117
51.26	482.4866	51.26	521.1511
51.27	487.0349	51.27	457.5961
51.28	591.3365	51.28	376.2457
51.29	482.5566	51.29	401.6677
51.3	486.7362	51.3	477.9337
51.31	431.9051	51.31	399.1255
51.32	455.0554	51.32	315.2329
51.33	455.9191	51.33	447.4273
51.34	477.9089	51.34	592.3327
51.35	488.3661	51.35	485.5603
51.36	450.857	51.36	538.9465
51.37	378.9568	51.37	602.5015
51.38	485.9863	51.38	556.7419
51.39	439.2569	51.39	442.3429
51.4	463.9421	51.4	533.8621
51.41	471.8582	51.41	513.5245
51.42	382.1678	51.42	597.4171
51.43	466.3375	51.43	521.1511
51.44	561.5924	51.44	383.8723
51.45	583.7103	51.45	437.2585
51.46	493.4387	51.46	429.6319
51.47	490.0209	51.47	391.4989
51.48	520.7974	51.48	493.1869
51.49	442.3535	51.49	650.8033
51.5	376.0084	51.5	475.3915
51.51	486.2319	51.51	500.8135
51.52	452.0919	51.52	348.2815
51.53	526.3082	51.53	503.3557
51.54	577.9965	51.54	528.7777
51.55	404.047	51.55	582.1639
51.56	348.4678	51.56	394.0411
51.57	484.5789	51.57	597.4171
51.58	364.885	51.58	399.1255
51.59	398.7681	51.59	526.2355
51.6	411.2851	51.6	566.9107
51.61	393.2361	51.61	516.0667
51.62	561.2505	51.62	597.4171
51.63	499.5338	51.63	467.7649
51.64	416.224	51.64	536.4043
51.65	457.0733	51.65	531.3199
51.66	434.3042	51.66	635.5501
51.67	404.4079	51.67	490.6447
51.68	453.629	51.68	449.9695
51.69	454.1086	51.69	518.6089
51.7	357.5288	51.7	671.141
51.71	452.0207	51.71	424.5475
51.72	443.9889	51.72	510.9823
51.73	432.5088	51.73	564.3685
51.74	386.3286	51.74	533.8621
51.75	388.3547	51.75	510.9823
51.76	397.1726	51.76	721.9849
51.77	440.1524	51.77	645.7189
51.78	451.4745	51.78	452.5117
51.79	412.9462	51.79	640.6345
51.8	482.8303	51.8	564.3685
51.81	476.0166	51.81	477.9337
51.82	403.0027	51.82	521.1511
51.83	488.6892	51.83	510.9823
51.84	505.4308	51.84	383.8723
51.85	495.611	51.85	508.4401
51.86	498.3945	51.86	528.7777
51.87	518.2958	51.87	564.3685
51.88	512.3557	51.88	605.0437
51.89	490.5765	51.89	503.3557
51.9	506.94	51.9	452.5117
51.91	536.9716	51.91	376.2457
51.92	477.0671	51.92	490.6447
51.93	531.309	51.93	419.4631
51.94	421.8241	51.94	406.7521
51.95	459.1451	51.95	460.1383
51.96	475.1617	51.96	556.7419
51.97	471.4564	51.97	462.6805
51.98	466.1119	51.98	643.1768
51.99	499.3532	51.99	528.7777
52	409.804	52	437.2585
52.01	493.9418	52.01	622.8391
52.02	459.7106	52.02	526.2355
52.03	439.5856	52.03	597.4171
52.04	517.594	52.04	467.7649
52.05	508.5523	52.05	411.8365
52.06	488.6817	52.06	513.5245
52.07	497.7752	52.07	635.5501
52.08	448.7241	52.08	455.0539
52.09	545.0352	52.09	533.8621
52.1	530.5566	52.1	691.4786
52.11	502.2036	52.11	658.4299
52.12	435.8191	52.12	544.0309
52.13	443.374	52.13	510.9823
52.14	534.993	52.14	579.6217
52.15	553.1213	52.15	518.6089
52.16	440.5999	52.16	650.8033
52.17	417.5339	52.17	510.9823
52.18	420.1099	52.18	594.8749
52.19	375.3684	52.19	432.1741
52.2	542.606	52.2	371.1613
52.21	485.8282	52.21	526.2355
52.22	499.7038	52.22	620.2969
52.23	441.118	52.23	594.8749
52.24	442.7247	52.24	465.2227
52.25	436.1747	52.25	554.1997
52.26	482.2667	52.26	462.6805
52.27	445.2307	52.27	571.9951
52.28	441.3029	52.28	714.3584
52.29	411.9925	52.29	447.4273
52.3	509.9203	52.3	406.7521
52.31	469.8253	52.31	638.0923
52.32	411.2538	52.32	510.9823
52.33	420.2111	52.33	683.8519
52.34	425.0876	52.34	729.6116
52.35	478.9101	52.35	411.8365
52.36	533.5344	52.36	526.2355
52.37	460.1024	52.37	531.3199
52.38	454.6811	52.38	475.3915
52.39	471.5876	52.39	521.1511
52.4	521.698	52.4	546.5731
52.41	442.2222	52.41	602.5015
52.42	436.0815	52.42	432.1741
52.43	475.7079	52.43	531.3199
52.44	496.8559	52.44	584.7061
52.45	428.3054	52.45	554.1997
52.46	429.0085	52.46	371.1613
52.47	504.0984	52.47	488.1025
52.48	438.9163	52.48	490.6447
52.49	516.9522	52.49	434.7163
52.5	600.3495	52.5	409.2943
52.51	447.7242	52.51	406.7521
52.52	453.9018	52.52	460.1383
52.53	362.4509	52.53	378.7879
52.54	409.9764	52.54	455.0539
52.55	424.3082	52.55	503.3557
52.56	471.7839	52.56	490.6447
52.57	481.2368	52.57	488.1025
52.58	479.6206	52.58	434.7163
52.59	522.1448	52.59	444.8851
52.6	443.5233	52.6	554.1997
52.61	428.5697	52.61	605.0437
52.62	432.5725	52.62	574.5373
52.63	525.2377	52.63	587.2483
52.64	462.236	52.64	554.1997
52.65	395.0572	52.65	495.7291
52.66	501.8017	52.66	399.1255
52.67	433.0912	52.67	671.141
52.68	420.2867	52.68	694.0208
52.69	494.2824	52.69	477.9337
52.7	524.7321	52.7	429.6319
52.71	522.6985	52.71	338.1127
52.72	496.9572	52.72	378.7879
52.73	467.7611	52.73	439.8007
52.74	448.1529	52.74	358.4503
52.75	437.7164	52.75	345.7393
52.76	473.5962	52.76	452.5117
52.77	425.7706	52.77	485.5603
52.78	476.2666	52.78	363.5347
52.79	518.3508	52.79	399.1255
52.8	428.7291	52.8	460.1383
52.81	489.7416	52.81	485.5603
52.82	465.51	52.82	363.5347
52.83	446.9893	52.83	470.3071
52.84	354.2404	52.84	523.6933
52.85	508.3811	52.85	404.2099
52.86	465.8931	52.86	315.2329
52.87	500.7518	52.87	411.8365
52.88	464.9108	52.88	480.4759
52.89	365.0556	52.89	399.1255
52.9	342.5152	52.9	475.3915
52.91	385.7437	52.91	541.4887
52.92	327.9278	52.92	602.5015
52.93	465.3388	52.93	627.9235
52.94	496.8134	52.94	701.6473
52.95	364.9937	52.95	480.4759
52.96	422.2566	52.96	340.6549
52.97	427.6523	52.97	396.5833
52.98	460.3949	52.98	513.5245
52.99	519.5126	52.99	510.9823
53	512.4526	53	419.4631
53.01	426.0974	53.01	424.5475
53.02	506.4844	53.02	427.0897
53.03	506.3544	53.03	516.0667
53.04	505.6326	53.04	457.5961
53.05	438.6725	53.05	429.6319
53.06	504.5314	53.06	498.2713
53.07	491.2046	53.07	383.8723
53.08	437.8539	53.08	437.2585
53.09	408.7441	53.09	483.0181
53.1	407.3373	53.1	523.6933
53.11	412.0894	53.11	386.4145
53.12	436.4828	53.12	437.2585
53.13	493.14	53.13	554.1997
53.14	502.5235	53.14	516.0667
53.15	437.9039	53.15	508.4401
53.16	432.3438	53.16	455.0539
53.17	480.3912	53.17	322.8595
53.18	433.9824	53.18	411.8365
53.19	438.7375	53.19	533.8621
53.2	428.2848	53.2	371.1613
53.21	434.6229	53.21	577.0795
53.22	400.4904	53.22	378.7879
53.23	565.8295	53.23	505.8979
53.24	521.708	53.24	475.3915
53.25	497.1978	53.25	414.3787
53.26	435.9047	53.26	477.9337
53.27	462.0273	53.27	577.0795
53.28	457.762	53.28	447.4273
53.29	398.7656	53.29	498.2713
53.3	512.7126	53.3	561.8263
53.31	453.4737	53.31	480.4759
53.32	312.0918	53.32	378.7879
53.33	400.5529	53.33	455.0539
53.34	416.9839	53.34	521.1511
53.35	476.8309	53.35	333.0283
53.36	448.9428	53.36	625.3813
53.37	446.8612	53.37	493.1869
53.38	414.9229	53.38	378.7879
53.39	535.7317	53.39	419.4631
53.4	526.8063	53.4	427.0897
53.41	461.6123	53.41	355.9081
53.42	437.1208	53.42	523.6933
53.43	480.6118	53.43	442.3429
53.44	425.8318	53.44	391.4989
53.45	545.9676	53.45	386.4145
53.46	520.4443	53.46	422.0053
53.47	420.8361	53.47	480.4759
53.48	444.147	53.48	399.1255
53.49	409.4396	53.49	510.9823
53.5	439.145	53.5	510.9823
53.51	414.3679	53.51	544.0309
53.52	403.8708	53.52	335.5705
53.53	470.4134	53.53	500.8135
53.54	553.0357	53.54	493.1869
53.55	558.4077	53.55	559.2841
53.56	497.6771	53.56	676.2253
53.57	340.9741	53.57	424.5475
53.58	354.8334	53.58	333.0283
53.59	462.9834	53.59	414.3787
53.6	390.3307	53.6	462.6805
53.61	395.3622	53.61	503.3557
53.62	529.486	53.62	419.4631
53.63	488.0555	53.63	442.3429
53.64	419.9905	53.64	518.6089
53.65	438.7275	53.65	493.1869
53.66	448.5866	53.66	399.1255
53.67	443.014	53.67	475.3915
53.68	423.1046	53.68	452.5117
53.69	419.2144	53.69	447.4273
53.7	352.1712	53.7	483.0181
53.71	436.2172	53.71	470.3071
53.72	444.6151	53.72	360.9925
53.73	461.5867	53.73	363.5347
53.74	485.6538	53.74	544.0309
53.75	474.9673	53.75	462.6805
53.76	419.8362	53.76	518.6089
53.77	451.622	53.77	439.8007
53.78	475.5566	53.78	516.0667
53.79	424.8445	53.79	493.1869
53.8	461.0199	53.8	434.7163
53.81	482.6816	53.81	373.7035
53.82	400.4217	53.82	401.6677
53.83	486.0681	53.83	477.9337
53.84	439.1156	53.84	345.7393
53.85	494.463	53.85	414.3787
53.86	553.0126	53.86	444.8851
53.87	488.6792	53.87	376.2457
53.88	463.8477	53.88	437.2585
53.89	404.4851	53.89	589.7905
53.9	399.1681	53.9	574.5373
53.91	518.9683	53.91	533.8621
53.92	577.759	53.92	546.5731
53.93	530.8234	53.93	620.2969
53.94	455.2929	53.94	541.4887
53.95	472.9725	53.95	368.6191
53.96	407.5417	53.96	488.1025
53.97	419.2387	53.97	561.8263
53.98	518.184	53.98	355.9081
53.99	427.1743	53.99	432.1741
54	455.8591	54	500.8135
54.01	431.327	54.01	561.8263
54.02	355.6221	54.02	516.0667
54.03	454.9392	54.03	544.0309
54.04	422.6296	54.04	513.5245
54.05	511.3827	54.05	419.4631
54.06	473.1087	54.06	495.7291
54.07	341.2359	54.07	348.2815
54.08	383.9907	54.08	538.9465
54.09	359.713	54.09	533.8621
54.1	390.9157	54.1	528.7777
54.11	379.2149	54.11	404.2099
54.12	479.2438	54.12	599.9594
54.13	488.4392	54.13	434.7163
54.14	497.7246	54.14	335.5705
54.15	427.268	54.15	467.7649
54.16	474.3998	54.16	505.8979
54.17	534.5755	54.17	633.0079
54.18	460.168	54.18	508.4401
54.19	508.3461	54.19	541.4887
54.2	413.613	54.2	460.1383
54.21	512.2339	54.21	483.0181
54.22	477.5808	54.22	416.9209
54.23	492.2076	54.23	566.9107
54.24	467.0937	54.24	500.8135
54.25	405.3844	54.25	470.3071
54.26	461.403	54.26	325.4016
54.27	429.3022	54.27	465.2227
54.28	530.2772	54.28	345.7393
54.29	558.4171	54.29	289.8109
54.3	492.9319	54.3	480.4759
54.31	408.1191	54.31	490.6447
54.32	454.1624	54.32	416.9209
54.33	441.5998	54.33	371.1613
54.34	541.4599	54.34	437.2585
54.35	441.4423	54.35	465.2227
54.36	510.1928	54.36	574.5373
54.37	506.5837	54.37	536.4043
54.38	516.0067	54.38	439.8007
54.39	452.2132	54.39	444.8851
54.4	449.7209	54.4	571.9951
54.41	529.006	54.41	305.0641
54.42	459.2356	54.42	371.1613
54.43	481.0774	54.43	457.5961
54.44	405.8106	54.44	432.1741
54.45	391.4269	54.45	444.8851
54.46	490.0178	54.46	447.4273
54.47	478.7301	54.47	536.4043
54.48	387.9841	54.48	460.1383
54.49	518.8676	54.49	447.4273
54.5	548.5174	54.5	358.4503
54.51	428.9216	54.51	416.9209
54.52	509.266	54.52	427.0897
54.53	494.7398	54.53	498.2713
54.54	404.0095	54.54	294.8953
54.55	383.7245	54.55	371.1613
54.56	404.4595	54.56	582.1639
54.57	471.1726	54.57	449.9695
54.58	442.2091	54.58	427.0897
54.59	404.7057	54.59	498.2713
54.6	438.6482	54.6	472.8493
54.61	442.5347	54.61	538.9465
54.62	472.7063	54.62	371.1613
54.63	375.5415	54.63	434.7163
54.64	404.6857	54.64	554.1997
54.65	475.561	54.65	462.6805
54.66	502.2036	54.66	483.0181
54.67	444.4183	54.67	488.1025
54.68	473.9743	54.68	470.3071
54.69	504.4608	54.69	521.1511
54.7	489.9391	54.7	457.5961
54.71	453.8105	54.71	536.4043
54.72	450.394	54.72	424.5475
54.73	468.0892	54.73	424.5475
54.74	487.2518	54.74	462.6805
54.75	565.8251	54.75	681.3098
54.76	441.4423	54.76	462.6805
54.77	416.5865	54.77	498.2713
54.78	427.1861	54.78	419.4631
54.79	485.3714	54.79	388.9567
54.8	462.0948	54.8	404.2099
54.81	561.8411	54.81	531.3199
54.82	513.2663	54.82	638.0923
54.83	469.7228	54.83	490.6447
54.84	435.4391	54.84	556.7419
54.85	442.6503	54.85	444.8851
54.86	543.4828	54.86	444.8851
54.87	459.265	54.87	340.6549
54.88	455.586	54.88	378.7879
54.89	460.9574	54.89	475.3915
54.9	483.1497	54.9	381.3301
54.91	473.7755	54.91	419.4631
54.92	508.0974	54.92	320.3173
54.93	400.5742	54.93	411.8365
54.94	395.091	54.94	498.2713
54.95	427.8354	54.95	579.6217
54.96	486.7899	54.96	483.0181
54.97	477.7571	54.97	503.3557
54.98	547.8987	54.98	383.8723
54.99	528.8885	54.99	508.4401
55	444.0477	55	510.9823
55.01	395.6128	55.01	597.4171
55.02	446.325	55.02	485.5603
55.03	488.6267	55.03	343.1971
55.04	510.6909	55.04	360.9925
55.05	446.1375	55.05	721.9849
55.06	489.3985	55.06	612.6703
55.07	480.9087	55.07	465.2227
55.08	470.4002	55.08	376.2457
55.09	428.1679	55.09	401.6677
55.1	385.5668	55.1	549.1153
55.11	429.5228	55.11	569.4529
55.12	455.8497	55.12	569.4529
55.13	479.8562	55.13	480.4759
55.14	506.8962	55.14	627.9235
55.15	431.6476	55.15	419.4631
55.16	488.0873	55.16	457.5961
55.17	547.3212	55.17	716.9006
55.18	469.3703	55.18	449.9695
55.19	480.5824	55.19	531.3199
55.2	405.5475	55.2	513.5245
55.21	384.5913	55.21	401.6677
55.22	458.6557	55.22	510.9823
55.23	486.8174	55.23	546.5731
55.24	462.0741	55.24	477.9337
55.25	523.621	55.25	343.1971
55.26	517.5915	55.26	538.9465
55.27	431.8063	55.27	587.2483
55.28	530.5397	55.28	518.6089
55.29	498.2345	55.29	401.6677
55.3	468.0761	55.3	617.7548
55.31	430.4058	55.31	526.2355
55.32	490.689	55.32	455.0539
55.33	561.7911	55.33	554.1997
55.34	580.9232	55.34	480.4759
55.35	455.6441	55.35	343.1971
55.36	383.0271	55.36	681.3098
55.37	431.5982	55.37	305.0641
55.38	411.5163	55.38	528.7777
55.39	448.9191	55.39	516.0667
55.4	538.044	55.4	348.2815
55.41	460.4561	55.41	414.3787
55.42	469.4078	55.42	551.6575
55.43	461.2073	55.43	551.6575
55.44	470.1909	55.44	477.9337
55.45	481.4474	55.45	432.1741
55.46	461.0555	55.46	533.8621
55.47	413.2924	55.47	584.7061
55.48	409.9621	55.48	607.5859
55.49	371.86	55.49	592.3327
55.5	363.7226	55.5	660.9722
55.51	512.6538	55.51	350.8237
55.52	510.7496	55.52	394.0411
55.53	453.1618	55.53	495.7291
55.54	480.1674	55.54	401.6677
55.55	420.2986	55.55	404.2099
55.56	413.7742	55.56	371.1613
55.57	432.5875	55.57	544.0309
55.58	463.9508	55.58	462.6805
55.59	492.0695	55.59	571.9951
55.6	524.2403	55.6	500.8135
55.61	535.6442	55.61	434.7163
55.62	443.6096	55.62	551.6575
55.63	541.623	55.63	605.0437
55.64	435.6472	55.64	485.5603
55.65	421.9447	55.65	449.9695
55.66	407.7867	55.66	483.0181
55.67	477.5208	55.67	505.8979
55.68	451.3008	55.68	615.2125
55.69	442.8859	55.69	416.9209
55.7	460.878	55.7	386.4145
55.71	433.3443	55.71	386.4145
55.72	469.6778	55.72	457.5961
55.73	413.2655	55.73	503.3557
55.74	402.1615	55.74	544.0309
55.75	362.4202	55.75	477.9337
55.76	516.1254	55.76	503.3557
55.77	502.0161	55.77	401.6677
55.78	468.8435	55.78	386.4145
55.79	374.4685	55.79	528.7777
55.8	511.6014	55.8	549.1153
55.81	543.1997	55.81	477.9337
55.82	547.5043	55.82	467.7649
55.83	461.2167	55.83	378.7879
55.84	461.8623	55.84	366.0769
55.85	425.9137	55.85	401.6677
55.86	420.4086	55.86	513.5245
55.87	563.546	55.87	422.0053
55.88	548.3118	55.88	424.5475
55.89	548.5743	55.89	516.0667
55.9	437.6776	55.9	386.4145
55.91	461.9023	55.91	383.8723
55.92	462.8484	55.92	368.6191
55.93	395.3697	55.93	508.4401
55.94	454.323	55.94	404.2099
55.95	403.6258	55.95	422.0053
55.96	485.1245	55.96	533.8621
55.97	377.7776	55.97	406.7521
55.98	381.4391	55.98	493.1869
55.99	478.7582	55.99	544.0309
56	514.1387	56	549.1153
56.01	469.4741	56.01	513.5245
56.02	469.6234	56.02	472.8493
56.03	396.4783	56.03	592.3327
56.04	493.7956	56.04	663.5143
56.05	488.0598	56.05	510.9823
56.06	471.4564	56.06	505.8979
56.07	455.3091	56.07	455.0539
56.08	371.3407	56.08	660.9722
56.09	350.5438	56.09	566.9107
56.1	414.5048	56.1	442.3429
56.11	511.7939	56.11	462.6805
56.12	554.1906	56.12	432.1741
56.13	460.2774	56.13	533.8621
56.14	494.0162	56.14	388.9567
56.15	497.7615	56.15	348.2815
56.16	371.7219	56.16	541.4887
56.17	547.2932	56.17	516.0667
56.18	416.024	56.18	366.0769
56.19	493.8512	56.19	470.3071
56.2	486.41	56.2	683.8519
56.21	393.2586	56.21	409.2943
56.22	490.9702	56.22	508.4401
56.23	520.4856	56.23	510.9823
56.24	450.9583	56.24	579.6217
56.25	590.7941	56.25	518.6089
56.26	428.8041	56.26	401.6677
56.27	528.1412	56.27	404.2099
56.28	425.5888	56.28	477.9337
56.29	473.005	56.29	434.7163
56.3	432.6475	56.3	409.2943
56.31	484.582	56.31	442.3429
56.32	433.4081	56.32	376.2457
56.33	448.9128	56.33	472.8493
56.34	423.4764	56.34	523.6933
56.35	397.7751	56.35	475.3915
56.36	482.4778	56.36	521.1511
56.37	507.5649	56.37	404.2099
56.38	458.2857	56.38	386.4145
56.39	457.1465	56.39	488.7381
56.4	440.2849	56.4	472.2137
56.41	473.6387	56.41	414.3787
56.42	445.5669	56.42	513.5245
56.43	406.1843	56.43	688.9363
56.44	437.7083	56.44	516.0667
56.45	452.6106	56.45	381.3301
56.46	523.7141	56.46	383.8723
56.47	488.8779	56.47	333.0283
56.48	497.2246	56.48	521.1511
56.49	476.6522	56.49	335.5705
56.5	505.2389	56.5	518.6089
56.51	516.3666	56.51	406.7521
56.52	534.938	56.52	528.7777
56.53	480.4587	56.53	406.7521
56.54	429.7253	56.54	315.2329
56.55	459.1219	56.55	358.4503
56.56	439.2575	56.56	383.8723
56.57	538.1183	56.57	368.6191
56.58	491.9214	56.58	544.0309
56.59	487.6736	56.59	355.9081
56.6	531.8246	56.6	378.7879
56.61	384.6757	56.61	333.0283
56.62	429.8927	56.62	414.3787
56.63	457.8014	56.63	533.8621
56.64	442.5297	56.64	620.2969
56.65	461.2042	56.65	434.7163
56.66	357.4069	56.66	602.5015
56.67	490.2984	56.67	416.9209
56.68	495.6035	56.68	528.7777
56.69	492.3594	56.69	513.5245
56.7	501.6873	56.7	508.4401
56.71	381.4022	56.71	383.8723
56.72	450.1715	56.72	419.4631
56.73	442.9834	56.73	409.2943
56.74	489.9059	56.74	549.1153
56.75	441.6466	56.75	569.4529
56.76	413.473	56.76	409.2943
56.77	424.6835	56.77	404.2099
56.78	447.1771	56.78	549.1153
56.79	495.1729	56.79	605.0437
56.8	493.9849	56.8	432.1741
56.81	503.569	56.81	388.9567
56.82	399.8412	56.82	457.5961
56.83	381.7084	56.83	396.5833
56.84	459.2625	56.84	368.6191
56.85	508.3342	56.85	401.6677
56.86	583.2111	56.86	531.3199
56.87	516.2604	56.87	424.5475
56.88	392.9312	56.88	317.7751
56.89	429.204	56.89	376.2457
56.9	436.4153	56.9	671.141
56.91	487.1324	56.91	498.2713
56.92	446.8274	56.92	378.7879
56.93	479.7237	56.93	419.4631
56.94	399.2249	56.94	444.8851
56.95	442.0566	56.95	483.0181
56.96	502.1679	56.96	327.9439
56.97	517.3497	56.97	358.4503
56.98	501.2561	56.98	633.0079
56.99	530.3591	56.99	439.8007
57	521.7173	57	513.5245
57.01	433.9236	57.01	510.9823
57.02	375.2665	57.02	330.4861
57.03	402.9402	57.03	465.2227
57.04	489.5485	57.04	577.0795
57.05	506.2201	57.05	589.7905
57.06	471.4564	57.06	411.8365
57.07	378.2325	57.07	457.5961
57.08	486.0644	57.08	396.5833
57.09	424.372	57.09	404.2099
57.1	451.262	57.1	335.5705
57.11	481.1892	57.11	378.7879
57.12	411.0557	57.12	510.9823
57.13	463.3553	57.13	422.0053
57.14	417.6814	57.14	513.5245
57.15	452.9981	57.15	422.0053
57.16	448.0054	57.16	566.9107
57.17	459.4519	57.17	714.3584
57.18	429.4315	57.18	465.2227
57.19	433.8593	57.19	569.4529
57.2	491.9545	57.2	358.4503
57.21	450.8614	57.21	360.9925
57.22	436.0647	57.22	544.0309
57.23	460.5505	57.23	284.7265
57.24	430.4883	57.24	386.4145
57.25	482.566	57.25	424.5475
57.26	425.475	57.26	338.1127
57.27	508.2211	57.27	503.3557
57.28	499.0232	57.28	493.1869
57.29	504.1753	57.29	416.9209
57.3	482.3335	57.3	638.0923
57.31	530.3135	57.31	564.3685
57.32	406.4261	57.32	388.9567
57.33	445.2169	57.33	615.2125
57.34	466.1644	57.34	490.6447
57.35	490.0665	57.35	432.1741
57.36	430.3227	57.36	302.5219
57.37	439.9943	57.37	516.0667
57.38	471.9982	57.38	566.9107
57.39	411.7707	57.39	498.2713
57.4	413.7324	57.4	363.5347
57.41	546.8088	57.41	488.1025
57.42	500.1537	57.42	597.4171
57.43	472.2544	57.43	449.9695
57.44	388.276	57.44	480.4759
57.45	590.6954	57.45	630.4658
57.46	510.4959	57.46	383.8723
57.47	489.9059	57.47	505.8979
57.48	481.7054	57.48	582.1639
57.49	566.8226	57.49	536.4043
57.5	503.824	57.5	422.0053
57.51	548.0712	57.51	460.1383
57.52	425.3232	57.52	467.7649
57.53	408.8684	57.53	396.5833
57.54	460.2655	57.54	528.7777
57.55	475.331	57.55	549.1153
57.56	463.8715	57.56	513.5245
57.57	458.567	57.57	561.8263
57.58	530.4915	57.58	480.4759
57.59	482.5066	57.59	556.7419
57.6	461.0999	57.6	569.4529
57.61	424.3201	57.61	498.2713
57.62	391.4944	57.62	434.7163
57.63	528.9261	57.63	605.0437
57.64	383.2751	57.64	488.1025
57.65	398.91	57.65	467.7649
57.66	475.1223	57.66	521.1511
57.67	434.5867	57.67	599.9594
57.68	401.5147	57.68	467.7649
57.69	432.715	57.69	358.4503
57.7	451.8251	57.7	363.5347
57.71	456.8565	57.71	383.8723
57.72	462.201	57.72	457.5961
57.73	398.6525	57.73	307.6063
57.74	428.221	57.74	427.0897
57.75	504.8495	57.75	340.6549
57.76	491.9501	57.76	432.1741
57.77	393.6442	57.77	429.6319
57.78	374.1904	57.78	462.6805
57.79	455.8553	57.79	467.7649
57.8	574.4637	57.8	521.1511
57.81	421.7647	57.81	386.4145
57.82	416.9146	57.82	330.4861
57.83	484.9052	57.83	592.3327
57.84	415.4647	57.84	594.8749
57.85	493.1425	57.85	411.8365
57.86	539.2314	57.86	368.6191
57.87	463.3015	57.87	366.0769
57.88	532.9476	57.88	526.2355
57.89	467.9936	57.89	495.7291
57.9	505.9532	57.9	345.7393
57.91	517.6702	57.91	378.7879
57.92	441.3673	57.92	439.8007
57.93	478.6332	57.93	518.6089
57.94	491.9545	57.94	350.8237
57.95	511.2696	57.95	360.9925
57.96	456.1922	57.96	401.6677
57.97	339.8717	57.97	460.1383
57.98	409.3371	57.98	485.5603
57.99	410.6939	57.99	488.1025
58	480.6899	58	523.6933
58.01	430.472	58.01	439.8007
58.02	376.887	58.02	480.4759
58.03	371.0932	58.03	594.8749
58.04	446.6299	58.04	503.3557
58.05	472.6325	58.05	577.0795
58.06	463.2403	58.06	500.8135
58.07	425.8219	58.07	434.7163
58.08	444.5932	58.08	516.0667
58.09	514.3574	58.09	546.5731
58.1	401.5085	58.1	442.3429
58.11	360.4504	58.11	605.0437
58.12	427.0286	58.12	683.8519
58.13	388.744	58.13	531.3199
58.14	466.9443	58.14	508.4401
58.15	510.2797	58.15	294.8953
58.16	517.7446	58.16	584.7061
58.17	462.7116	58.17	505.8979
58.18	436.2796	58.18	452.5117
58.19	452.715	58.19	465.2227
58.2	411.4138	58.2	432.1741
58.21	423.4839	58.21	480.4759
58.22	444.7601	58.22	648.2611
58.23	504.4221	58.23	333.0283
58.24	416.6627	58.24	533.8621
58.25	483.3015	58.25	569.4529
58.26	536.1779	58.26	427.0897
58.27	437.8033	58.27	282.1843
58.28	434.8723	58.28	566.9107
58.29	401.771	58.29	503.3557
58.3	332.9305	58.3	399.1255
58.31	436.2409	58.31	350.8237
58.32	496.3372	58.32	416.9209
58.33	527.7249	58.33	480.4759
58.34	425.5813	58.34	452.5117
58.35	452.5519	58.35	483.0181
58.36	441.6917	58.36	381.3301
58.37	347.0748	58.37	508.4401
58.38	445.2195	58.38	422.0053
58.39	408.5716	58.39	335.5705
58.4	498.4833	58.4	449.9695
58.41	503.2547	58.41	503.3557
58.42	492.3645	58.42	544.0309
58.43	421.1017	58.43	406.7521
58.44	463.4315	58.44	404.2099
58.45	391.0582	58.45	460.1383
58.46	535.0693	58.46	449.9695
58.47	492.3251	58.47	625.3813
58.48	479.7606	58.48	561.8263
58.49	561.8181	58.49	477.9337
58.5	519.6682	58.5	521.1511
58.51	397.4026	58.51	617.7548
58.52	418.4775	58.52	594.8749
58.53	424.562	58.53	518.6089
58.54	418.7207	58.54	401.6677
58.55	497.3696	58.55	510.9823
58.56	498.3558	58.56	457.5961
58.57	490.6315	58.57	429.6319
58.58	531.5671	58.58	444.8851
58.59	508.9123	58.59	340.6549
58.6	508.458	58.6	325.4016
58.61	466.1044	58.61	503.3557
58.62	465.8582	58.62	368.6191
58.63	507.7337	58.63	452.5117
58.64	526.8887	58.64	521.1511
58.65	487.2493	58.65	422.0053
58.66	541.6455	58.66	442.3429
58.67	385.3325	58.67	305.0641
58.68	572.3533	58.68	320.3173
58.69	472.5644	58.69	485.5603
58.7	389.4608	58.7	419.4631
58.71	441.0367	58.71	477.9337
58.72	468.441	58.72	399.1255
58.73	544.5146	58.73	546.5731
58.74	466.8381	58.74	391.4989
58.75	527.0644	58.75	401.6677
58.76	488.4704	58.76	531.3199
58.77	499.6369	58.77	584.7061
58.78	457.1008	58.78	483.0181
58.79	437.0264	58.79	432.1741
58.8	524.7171	58.8	409.2943
58.81	477.7002	58.81	620.2969
58.82	435.6935	58.82	490.6447
58.83	436.9002	58.83	645.7189
58.84	443.334	58.84	582.1639
58.85	455.0192	58.85	480.4759
58.86	460.8389	58.86	503.3557
58.87	432.1093	58.87	846.5528
58.88	409.1984	58.88	610.1281
58.89	455.5966	58.89	640.6345
58.9	473.2068	58.9	419.4631
58.91	478.852	58.91	422.0053
58.92	489.0973	58.92	409.2943
58.93	513.3194	58.93	442.3429
58.94	566.7925	58.94	589.7905
58.95	494.883	58.95	538.9465
58.96	458.4938	58.96	404.2099
58.97	456.5084	58.97	439.8007
58.98	483.0284	58.98	411.8365
58.99	551.9402	58.99	566.9107
59	524.9521	59	358.4503
59.01	470.6246	59.01	556.7419
59.02	531.5858	59.02	411.8365
59.03	569.7267	59.03	297.4375
59.04	430.1133	59.04	444.8851
59.05	428.2416	59.05	627.9235
59.06	472.9244	59.06	472.8493
59.07	392.6143	59.07	500.8135
59.08	414.9447	59.08	401.6677
59.09	446.1306	59.09	635.5501
59.1	489.0891	59.1	457.5961
59.11	453.0006	59.11	355.9081
59.12	509.9722	59.12	416.9209
59.13	483.1272	59.13	587.2483
59.14	514.9974	59.14	592.3327
59.15	405.7993	59.15	447.4273
59.16	517.0734	59.16	391.4989
59.17	496.829	59.17	564.3685
59.18	448.0361	59.18	465.2227
59.19	409.2672	59.19	411.8365
59.2	491.5433	59.2	424.5475
59.21	467.113	59.21	427.0897
59.22	375.0272	59.22	373.7035
59.23	384.7369	59.23	401.6677
59.24	394.0492	59.24	406.7521
59.25	409.9621	59.25	353.3659
59.26	393.5248	59.26	630.4658
59.27	505.6845	59.27	404.2099
59.28	441.1223	59.28	419.4631
59.29	493.145	59.29	355.9081
59.3	457.5414	59.3	345.7393
59.31	478.3333	59.31	381.3301
59.32	521.1437	59.32	493.1869
59.33	482.3391	59.33	455.0539
59.34	501.3368	59.34	411.8365
59.35	447.8636	59.35	513.5245
59.36	426.1093	59.36	368.6191
59.37	458.7919	59.37	363.5347
59.38	437.8414	59.38	526.2355
59.39	443.0259	59.39	495.7291
59.4	493.33	59.4	541.4887
59.41	505.4807	59.41	424.5475
59.42	460.6686	59.42	317.7751
59.43	401.1648	59.43	394.0411
59.44	476.6241	59.44	495.7291
59.45	484.9883	59.45	721.9849
59.46	466.5818	59.46	485.5603
59.47	465.1845	59.47	571.9951
59.48	525.8939	59.48	429.6319
59.49	478.762	59.49	460.1383
59.5	481.2523	59.5	556.7419
59.51	507.4256	59.51	427.0897
59.52	502.2036	59.52	460.1383
59.53	533.2782	59.53	414.3787
59.54	450.5208	59.54	460.1383
59.55	458.5951	59.55	592.3327
59.56	502.811	59.56	574.5373
59.57	521.4111	59.57	444.8851
59.58	504.8908	59.58	480.4759
59.59	439.7849	59.59	505.8979
59.6	477.3858	59.6	472.8493
59.61	467.5561	59.61	360.9925
59.62	488.6892	59.62	434.7163
59.63	466.3544	59.63	607.5859
59.64	429.4315	59.64	488.1025
59.65	438.7788	59.65	414.3787
59.66	488.7361	59.66	460.1383
59.67	531.0172	59.67	556.7419
59.68	499.0201	59.68	373.7035
59.69	383.3489	59.69	434.7163
59.7	442.3491	59.7	483.0181
59.71	462.1797	59.71	416.9209
59.72	330.4869	59.72	513.5245
59.73	429.5334	59.73	439.8007
59.74	449.3928	59.74	462.6805
59.75	461.4454	59.75	556.7419
59.76	486.0563	59.76	462.6805
59.77	425.0238	59.77	660.9722
59.78	475.1379	59.78	460.1383
59.79	420.3517	59.79	444.8851
59.8	492.9482	59.8	483.0181
59.81	468.7179	59.81	505.8979
59.82	511.1458	59.82	472.8493
59.83	474.7717	59.83	307.6063
59.84	464.1108	59.84	569.4529
59.85	535.7929	59.85	467.7649
59.86	495.9822	59.86	732.1538
59.87	475.7529	59.87	452.5117
59.88	471.0158	59.88	549.1153
59.89	468.3061	59.89	462.6805
59.9	471.4564	59.9	571.9951
59.91	446.24	59.91	429.6319
59.92	500.6512	59.92	531.3199
59.93	608.7787	59.93	495.7291
59.94	505.1995	59.94	541.4887
59.95	471.9095	59.95	620.2969
59.96	493.1281	59.96	559.2841
59.97	446.3906	59.97	460.1383
59.98	443.7814	59.98	429.6319
59.99	605.9908	59.99	391.4989
60	468.7979	60	350.8237
60.01	470.7883	60.01	559.2841
60.02	386.8098	60.02	536.4043
60.03	513.8431	60.03	528.7777
60.04	448.5079	60.04	528.7777
60.05	533.2363	60.05	493.1869
60.06	502.3229	60.06	399.1255
60.07	559.5889	60.07	475.3915
60.08	493.7912	60.08	416.9209
60.09	452.8531	60.09	531.3199
60.1	434.5717	60.1	549.1153
60.11	387.3523	60.11	566.9107
60.12	416.3215	60.12	444.8851
60.13	437.5914	60.13	355.9081
60.14	502.6273	60.14	452.5117
60.15	467.2386	60.15	574.5373
60.16	405.39	60.16	607.5859
60.17	347.5485	60.17	449.9695
60.18	478.3151	60.18	587.2483
60.19	487.4868	60.19	521.1511
60.2	530.3035	60.2	579.6217
60.21	429.4665	60.21	447.4273
60.22	360.7341	60.22	427.0897
60.23	472.6206	60.23	462.6805
60.24	427.3686	60.24	503.3557
60.25	490.5027	60.25	668.5987
60.26	486.3563	60.26	531.3199
60.27	469.5228	60.27	526.2355
60.28	433.1006	60.28	493.1869
60.29	402.9008	60.29	381.3301
60.3	472.2963	60.3	526.2355
60.31	378.3106	60.31	495.7291
60.32	425.8981	60.32	292.3531
60.33	462.1591	60.33	549.1153
60.34	502.2067	60.34	340.6549
60.35	512.7801	60.35	465.2227
60.36	464.5508	60.36	416.9209
60.37	416.2234	60.37	477.9337
60.38	502.0011	60.38	523.6933
60.39	536.0229	60.39	457.5961
60.4	522.7017	60.4	322.8595
60.41	471.3014	60.41	447.4273
60.42	423.8508	60.42	538.9465
60.43	403.6164	60.43	317.7751
60.44	473.7843	60.44	462.6805
60.45	430.0671	60.45	488.1025
60.46	475.1679	60.46	594.8749
60.47	445.1551	60.47	538.9465
60.48	421.1017	60.48	439.8007
60.49	405.9012	60.49	409.2943
60.5	451.8069	60.5	317.7751
60.51	521.6086	60.51	465.2227
60.52	518.5289	60.52	416.9209
60.53	525.3951	60.53	477.9337
60.54	488.3367	60.54	505.8979
60.55	539.0814	60.55	348.2815
60.56	492.6313	60.56	449.9695
60.57	458.845	60.57	503.3557
60.58	492.5826	60.58	508.4401
60.59	522.8504	60.59	490.6447
60.6	516.6016	60.6	434.7163
60.61	454.9623	60.61	480.4759
60.62	404.3407	60.62	488.1025
60.63	448.7079	60.63	345.7393
60.64	481.9685	60.64	503.3557
60.65	464.1008	60.65	546.5731
60.66	466.5594	60.66	584.7061
60.67	363.7982	60.67	554.1997
60.68	458.4651	60.68	353.3659
60.69	463.7383	60.69	610.1281
60.7	467.9199	60.7	419.4631
60.71	551.8946	60.71	350.8237
60.72	421.0623	60.72	416.9209
60.73	534.9505	60.73	373.7035
60.74	517.0497	60.74	472.8493
60.75	500.1394	60.75	416.9209
60.76	586.6763	60.76	424.5475
60.77	483.4865	60.77	516.0667
60.78	445.0113	60.78	546.5731
60.79	399.9661	60.79	388.9567
60.8	465.5701	60.8	508.4401
60.81	493.8449	60.81	422.0053
60.82	488.946	60.82	406.7521
60.83	427.4848	60.83	477.9337
60.84	389.4677	60.84	559.2841
60.85	473.1593	60.85	391.4989
60.86	439.9412	60.86	437.2585
60.87	491.4452	60.87	411.8365
60.88	481.2636	60.88	388.9567
60.89	475.2685	60.89	422.0053
60.9	477.6446	60.9	373.7035
60.91	574.6781	60.91	544.0309
60.92	485.1183	60.92	569.4529
60.93	529.6429	60.93	569.4529
60.94	424.1008	60.94	480.4759
60.95	466.3175	60.95	538.9465
60.96	416.8977	60.96	442.3429
60.97	484.0409	60.97	516.0667
60.98	479.7338	60.98	617.7548
60.99	428.9128	60.99	505.8979
61	355.3246	61	399.1255
61.01	440.8823	61.01	475.3915
61.02	519.9763	61.02	310.1485
61.03	441.0386	61.03	533.8621
61.04	426.5924	61.04	569.4529
61.05	494.4255	61.05	551.6575
61.06	453.9805	61.06	424.5475
61.07	538.3896	61.07	424.5475
61.08	485.8394	61.08	462.6805
61.09	510.7259	61.09	432.1741
61.1	597.2573	61.1	284.7265
61.11	507.0806	61.11	566.9107
61.12	385.4737	61.12	574.5373
61.13	448.6354	61.13	551.6575
61.14	604.2253	61.14	531.3199
61.15	584.8109	61.15	422.0053
61.16	506.3069	61.16	442.3429
61.17	450.6308	61.17	376.2457
61.18	416.6021	61.18	330.4861
61.19	382.0853	61.19	432.1741
61.2	471.0008	61.2	447.4273
61.21	433.0162	61.21	554.1997
61.22	399.713	61.22	498.2713
61.23	397.7607	61.23	381.3301
61.24	440.0355	61.24	472.8493
61.25	465.5088	61.25	416.9209
61.26	453.5987	61.26	531.3199
61.27	554.1437	61.27	460.1383
61.28	436.2447	61.28	322.8595
61.29	425.2063	61.29	411.8365
61.3	477.5964	61.3	533.8621
61.31	428.236	61.31	477.9337
61.32	389.0396	61.32	521.1511
61.33	437.9945	61.33	457.5961
61.34	498.4295	61.34	589.7905
61.35	538.4495	61.35	485.5603
61.36	406.2237	61.36	485.5603
61.37	388.141	61.37	381.3301
61.38	428.5035	61.38	366.0769
61.39	437.8708	61.39	330.4861
61.4	422.3865	61.4	218.6292
61.41	408.8372	61.41	541.4887
61.42	474.1493	61.42	536.4043
61.43	549.0367	61.43	510.9823
61.44	436.7402	61.44	366.0769
61.45	441.4554	61.45	612.6703
61.46	423.4052	61.46	437.2585
61.47	431.7019	61.47	566.9107
61.48	573.037	61.48	376.2457
61.49	524.5103	61.49	327.9439
61.5	572.7376	61.5	467.7649
61.51	506.4844	61.51	434.7163
61.52	484.0921	61.52	498.2713
61.53	483.2597	61.53	597.4171
61.54	401.7522	61.54	610.1281
61.55	511.6714	61.55	432.1741
61.56	488.3723	61.56	566.9107
61.57	506.3007	61.57	483.0181
61.58	445.0151	61.58	378.7879
61.59	486.8768	61.59	437.2585
61.6	488.2292	61.6	465.2227
61.61	482.0598	61.61	432.1741
61.62	529.6204	61.62	409.2943
61.63	432.6475	61.63	549.1153
61.64	420.4117	61.64	444.8851
61.65	463.4996	61.65	569.4529
61.66	446.6562	61.66	518.6089
61.67	481.3929	61.67	366.0769
61.68	335.7402	61.68	363.5347
61.69	403.0908	61.69	419.4631
61.7	491.0471	61.7	355.9081
61.71	505.422	61.71	452.5117
61.72	454.9223	61.72	396.5833
61.73	489.521	61.73	386.4145
61.74	473.8405	61.74	617.7548
61.75	522.6567	61.75	437.2585
61.76	418.49	61.76	460.1383
61.77	426.5918	61.77	521.1511
61.78	523.491	61.78	510.9823
61.79	493.1969	61.79	401.6677
61.8	462.0741	61.8	564.3685
61.81	434.811	61.81	625.3813
61.82	529.9654	61.82	541.4887
61.83	481.6248	61.83	457.5961
61.84	418.665	61.84	518.6089
61.85	428.8078	61.85	617.7548
61.86	391.2269	61.86	523.6933
61.87	471.8857	61.87	330.4861
61.88	469.5591	61.88	447.4273
61.89	428.4666	61.89	467.7649
61.9	500.395	61.9	414.3787
61.91	470.2677	61.91	388.9567
61.92	477.7214	61.92	404.2099
61.93	531.3228	61.93	388.9567
61.94	466.71	61.94	404.2099
61.95	450.9583	61.95	388.9567
61.96	445.6775	61.96	386.4145
61.97	443.7352	61.97	493.1869
61.98	467.3561	61.98	472.8493
61.99	409.3071	61.99	396.5833
62	528.951	62	368.6191
62.01	478.492	62.01	472.8493
62.02	430.7133	62.02	416.9209
62.03	475.561	62.03	513.5245
62.04	418.6175	62.04	493.1869
62.05	424.8851	62.05	523.6933
62.06	394.6922	62.06	422.0053
62.07	459.1569	62.07	460.1383
62.08	502.2036	62.08	360.9925
62.09	393.843	62.09	452.5117
62.1	452.5287	62.1	503.3557
62.11	525.4202	62.11	312.6907
62.12	469.7222	62.12	462.6805
62.13	492.1483	62.13	559.2841
62.14	435.7484	62.14	622.8391
62.15	486.0194	62.15	559.2841
62.16	473.9499	62.16	549.1153
62.17	462.1797	62.17	442.3429
62.18	466.5918	62.18	480.4759
62.19	549.7323	62.19	470.3071
62.2	477.4383	62.2	610.1281
62.21	579.8619	62.21	541.4887
62.22	562.7786	62.22	510.9823
62.23	446.3669	62.23	490.6447
62.24	468.8235	62.24	399.1255
62.25	568.5393	62.25	386.4145
62.26	530.634	62.26	493.1869
62.27	400.4923	62.27	490.6447
62.28	582.5123	62.28	434.7163
62.29	503.0829	62.29	587.2483
62.3	506.1038	62.3	414.3787
62.31	486.3563	62.31	688.9363
62.32	405.07	62.32	554.1997
62.33	477.7839	62.33	422.0053
62.34	431.6169	62.34	566.9107
62.35	450.9583	62.35	394.0411
62.36	374.516	62.36	366.0769
62.37	485.7207	62.37	419.4631
62.38	506.2201	62.38	409.2943
62.39	453.01	62.39	299.9797
62.4	440.7092	62.4	587.2483
62.41	451.1145	62.41	701.6473
62.42	461.9973	62.42	480.4759
62.43	491.347	62.43	447.4273
62.44	530.6528	62.44	447.4273
62.45	448.5679	62.45	465.2227
62.46	411.3457	62.46	432.1741
62.47	443.9071	62.47	427.0897
62.48	480.6799	62.48	676.2253
62.49	494.5948	62.49	640.6345
62.5	456.389	62.5	683.8519
62.51	489.3266	62.51	620.2969
62.52	477.1959	62.52	414.3787
62.53	434.2723	62.53	404.2099
62.54	543.4904	62.54	477.9337
62.55	404.2482	62.55	452.5117
62.56	430.194	62.56	483.0181
62.57	495.1611	62.57	594.8749
62.58	533.8113	62.58	610.1281
62.59	547.5681	62.59	556.7419
62.6	450.0834	62.6	388.9567
62.61	380.1654	62.61	294.8953
62.62	398.8463	62.62	462.6805
62.63	442.2566	62.63	488.1025
62.64	501.3018	62.64	452.5117
62.65	484.9876	62.65	536.4043
62.66	486.7812	62.66	317.7751
62.67	426.8205	62.67	427.0897
62.68	328.6115	62.68	447.4273
62.69	442.3741	62.69	340.6549
62.7	424.3345	62.7	503.3557
62.71	491.4995	62.71	368.6191
62.72	459.3125	62.72	488.1025
62.73	500.4768	62.73	544.0309
62.74	590.5235	62.74	424.5475
62.75	485.732	62.75	264.3889
62.76	472.2544	62.76	617.7548
62.77	464.7183	62.77	546.5731
62.78	463.3634	62.78	546.5731
62.79	486.82	62.79	477.9337
62.8	465.3045	62.8	752.4914
62.81	520.5487	62.81	561.8263
62.82	462.9728	62.82	510.9823
62.83	500.7156	62.83	508.4401
62.84	516.9697	62.84	508.4401
62.85	381.7709	62.85	383.8723
62.86	398.6194	62.86	508.4401
62.87	422.7321	62.87	528.7777
62.88	379.4255	62.88	528.7777
62.89	467.7623	62.89	457.5961
62.9	471.7689	62.9	465.2227
62.91	534.0025	62.91	770.2868
62.92	514.5549	62.92	582.1639
62.93	487.8549	62.93	495.7291
62.94	400.6036	62.94	310.1485
62.95	525.1196	62.95	605.0437
62.96	468.3967	62.96	437.2585
62.97	528.4673	62.97	246.5935
62.98	449.3353	62.98	472.8493
62.99	489.0373	62.99	437.2585
63	433.9736	63	765.2023
63.01	475.3704	63.01	546.5731
63.02	421.7704	63.02	437.2585
63.03	390.3307	63.03	516.0667
63.04	403.4358	63.04	350.8237
63.05	501.7592	63.05	360.9925
63.06	421.8878	63.06	348.2815
63.07	437.2733	63.07	488.1025
63.08	421.5341	63.08	455.0539
63.09	369.7327	63.09	447.4273
63.1	448.5535	63.1	411.8365
63.11	359.5961	63.11	709.2739
63.12	445.1513	63.12	716.9006
63.13	547.42	63.13	533.8621
63.14	485.83	63.14	544.0309
63.15	440.5218	63.15	549.1153
63.16	492.6213	63.16	513.5245
63.17	540.8475	63.17	490.6447
63.18	544.9552	63.18	452.5117
63.19	383.0583	63.19	483.0181
63.2	394.686	63.2	470.3071
63.21	457.1008	63.21	449.9695
63.22	401.211	63.22	358.4503
63.23	490.9546	63.23	434.7163
63.24	459.5625	63.24	465.2227
63.25	441.2155	63.25	432.1741
63.26	457.3608	63.26	498.2713
63.27	490.8608	63.27	490.6447
63.28	536.401	63.28	505.8979
63.29	551.1834	63.29	348.2815
63.3	437.4389	63.3	378.7879
63.31	450.6458	63.31	386.4145
63.32	491.9395	63.32	368.6191
63.33	527.3184	63.33	455.0539
63.34	564.3506	63.34	378.7879
63.35	543.1997	63.35	437.2585
63.36	419.9205	63.36	465.2227
63.37	473.1506	63.37	325.4016
63.38	470.0047	63.38	571.9951
63.39	473.933	63.39	521.1511
63.4	484.5108	63.4	383.8723
63.41	419.8443	63.41	544.0309
63.42	450.9308	63.42	373.7035
63.43	479.96	63.43	363.5347
63.44	489.116	63.44	383.8723
63.45	465.5582	63.45	386.4145
63.46	422.2378	63.46	315.2329
63.47	469.5772	63.47	465.2227
63.48	512.8176	63.48	434.7163
63.49	555.7654	63.49	480.4759
63.5	389.359	63.5	434.7163
63.51	396.782	63.51	409.2943
63.52	375.1272	63.52	531.3199
63.53	426.1049	63.53	495.7291
63.54	358.2	63.54	452.5117
63.55	401.8634	63.55	465.2227
63.56	506.6875	63.56	556.7419
63.57	497.3759	63.57	480.4759
63.58	516.401	63.58	396.5833
63.59	454.7529	63.59	617.7548
63.6	488.6111	63.6	508.4401
63.61	459.1919	63.61	488.1025
63.62	457.1102	63.62	505.8979
63.63	479.5525	63.63	383.8723
63.64	407.7904	63.64	455.0539
63.65	465.4688	63.65	503.3557
63.66	491.2458	63.66	490.6447
63.67	482.4797	63.67	416.9209
63.68	378.715	63.68	584.7061
63.69	489.7385	63.69	467.7649
63.7	392.8481	63.7	536.4043
63.71	478.6307	63.71	584.7061
63.72	520.3737	63.72	429.6319
63.73	505.3395	63.73	602.5015
63.74	483.574	63.74	612.6703
63.75	479.9262	63.75	467.7649
63.76	475.8622	63.76	625.3813
63.77	399.6161	63.77	472.8493
63.78	370.8732	63.78	571.9951
63.79	439.9562	63.79	483.0181
63.8	398.0563	63.8	485.5603
63.81	437.792	63.81	327.9439
63.82	456.589	63.82	483.0181
63.83	481.4705	63.83	455.0539
63.84	463.5927	63.84	500.8135
63.85	466.6462	63.85	366.0769
63.86	327.6784	63.86	327.9439
63.87	440.2361	63.87	414.3787
63.88	565.2827	63.88	409.2943
63.89	513.9031	63.89	477.9337
63.9	435.0879	63.9	310.1485
63.91	426.9717	63.91	533.8621
63.92	533.1713	63.92	480.4759
63.93	465.8813	63.93	467.7649
63.94	449.5065	63.94	414.3787
63.95	453.2837	63.95	477.9337
63.96	386.2449	63.96	452.5117
63.97	361.2635	63.97	376.2457
63.98	415.5178	63.98	259.3044
63.99	458.855	63.99	404.2099
64	539.4052	64	373.7035
64.01	423.8045	64.01	490.6447
64.02	408.7909	64.02	472.8493
64.03	510.3978	64.03	378.7879
64.04	558.7371	64.04	526.2355
64.05	451.177	64.05	371.1613
64.06	370.3282	64.06	612.6703
64.07	476.1759	64.07	526.2355
64.08	477.6008	64.08	561.8263
64.09	476.0341	64.09	391.4989
64.1	395.7397	64.1	277.0999
64.11	451.4307	64.11	317.7751
64.12	471.4545	64.12	503.3557
64.13	402.9784	64.13	422.0053
64.14	396.7696	64.14	477.9337
64.15	470.149	64.15	505.8979
64.16	451.5195	64.16	437.2585
64.17	420.508	64.17	498.2713
64.18	492.1483	64.18	721.9849
64.19	433.4199	64.19	592.3327
64.2	485.4039	64.2	355.9081
64.21	420.5986	64.21	503.3557
64.22	482.4541	64.22	439.8007
64.23	504.0753	64.23	480.4759
64.24	465.7407	64.24	452.5117
64.25	464.5677	64.25	340.6549
64.26	495.0311	64.26	503.3557
64.27	486.6844	64.27	404.2099
64.28	485.0058	64.28	493.1869
64.29	468.1948	64.29	633.0079
64.3	448.8441	64.3	366.0769
64.31	387.1473	64.31	307.6063
64.32	472.9406	64.32	554.1997
64.33	406.6986	64.33	554.1997
64.34	462.1916	64.34	673.6832
64.35	509.4622	64.35	513.5245
64.36	379.6455	64.36	416.9209
64.37	448.5935	64.37	442.3429
64.38	429.1947	64.38	287.2686
64.39	408.6709	64.39	495.7291
64.4	379.2149	64.4	475.3915
64.41	447.1636	64.41	467.7649
64.42	393.7448	64.42	485.5603
64.43	372.3531	64.43	523.6933
64.44	438.6544	64.44	475.3915
64.45	424.8445	64.45	521.1511
64.46	496.5009	64.46	564.3685
64.47	426.468	64.47	427.0897
64.48	460.5999	64.48	513.5245
64.49	399.4549	64.49	404.2099
64.5	498.1258	64.5	457.5961
64.51	424.3339	64.51	485.5603
64.52	417.7083	64.52	523.6933
64.53	441.326	64.53	386.4145
64.54	456.239	64.54	472.8493
64.55	440.3343	64.55	488.1025
64.56	393.1818	64.56	434.7163
64.57	387.0917	64.57	444.8851
64.58	558.9952	64.58	358.4503
64.59	464.9776	64.59	381.3301
64.6	449.051	64.6	350.8237
64.61	395.569	64.61	381.3301
64.62	405.4469	64.62	564.3685
64.63	395.0747	64.63	340.6549
64.64	375.6009	64.64	305.0641
64.65	524.479	64.65	394.0411
64.66	545.7089	64.66	411.2009
64.67	472.5613	64.67	460.7738
64.68	445.6881	64.68	218.6292
64.69	440.1555	64.69	485.5603
64.7	429.8109	64.7	564.3685
64.71	433.4568	64.71	444.8851
64.72	439.0569	64.72	409.2943
64.73	352.3561	64.73	371.1613
64.74	417.8638	64.74	419.4631
64.75	465.0139	64.75	444.8851
64.76	427.0149	64.76	429.6319
64.77	431.4076	64.77	480.4759
64.78	389.2371	64.78	470.3071
64.79	417.5707	64.79	503.3557
64.8	474.418	64.8	508.4401
64.81	514.8049	64.81	401.6677
64.82	442.7484	64.82	493.1869
64.83	554.7144	64.83	383.8723
64.84	446.5174	64.84	526.2355
64.85	450.9552	64.85	513.5245
64.86	479.225	64.86	437.2585
64.87	499.6881	64.87	498.2713
64.88	373.7754	64.88	330.4861
64.89	507.075	64.89	429.6319
64.9	552.6745	64.9	554.1997
64.91	514.343	64.91	444.8851
64.92	407.6998	64.92	516.0667
64.93	424.7776	64.93	422.0053
64.94	407.3011	64.94	549.1153
64.95	435.4285	64.95	391.4989
64.96	462.0485	64.96	561.8263
64.97	458.0376	64.97	607.5859
64.98	452.2201	64.98	485.5603
64.99	477.2996	64.99	378.7879
65	438.485	65	472.8493
65.01	420.208	65.01	755.0336
65.02	406.1674	65.02	472.8493
65.03	476.3534	65.03	355.9081
65.04	438.0157	65.04	327.9439
65.05	430.472	65.05	414.3787
65.06	540.6569	65.06	427.0897
65.07	467.9036	65.07	480.4759
65.08	415.4009	65.08	505.8979
65.09	397.5376	65.09	472.8493
65.1	514.4462	65.1	343.1971
65.11	535.128	65.11	449.9695
65.12	445.2501	65.12	503.3557
65.13	437.4045	65.13	490.6447
65.14	473.5737	65.14	505.8979
65.15	417.0595	65.15	419.4631
65.16	422.1085	65.16	495.7291
65.17	526.6888	65.17	419.4631
65.18	469.9922	65.18	424.5475
65.19	500.1194	65.19	355.9081
65.2	456.5203	65.2	292.3531
65.21	430.1115	65.21	427.0897
65.22	498.297	65.22	429.6319
65.23	575.4186	65.23	444.8851
65.24	366.1849	65.24	447.4273
65.25	491.3683	65.25	269.4732
65.26	549.3455	65.26	368.6191
65.27	566.1783	65.27	493.1869
65.28	450.7083	65.28	401.6677
65.29	334.9403	65.29	457.5961
65.3	373.6348	65.3	503.3557
65.31	414.0667	65.31	490.6447
65.32	398.9162	65.32	452.5117
65.33	449.2016	65.33	536.4043
65.34	471.6764	65.34	513.5245
65.35	539.2914	65.35	401.6677
65.36	491.9545	65.36	422.0053
65.37	445.8563	65.37	498.2713
65.38	449.8878	65.38	419.4631
65.39	481.6617	65.39	460.1383
65.4	457.9889	65.4	699.1052
65.41	426.3024	65.41	411.8365
65.42	371.3963	65.42	579.6217
65.43	423.7396	65.43	378.7879
65.44	504.6127	65.44	488.1025
65.45	440.8211	65.45	455.0539
65.46	391.8438	65.46	340.6549
65.47	421.5066	65.47	467.7649
65.48	386.6005	65.48	345.7393
65.49	397.9795	65.49	396.5833
65.5	452.5056	65.5	442.3429
65.51	456.3597	65.51	500.8135
65.52	470.7952	65.52	508.4401
65.53	427.1805	65.53	650.8033
65.54	374.9166	65.54	457.5961
65.55	461.9454	65.55	444.8851
65.56	430.5858	65.56	536.4043
65.57	399.8418	65.57	424.5475
65.58	424.6532	65.58	477.9337
65.59	392.22	65.59	559.2841
65.6	456.7253	65.6	480.4759
65.61	400.0255	65.61	574.5373
65.62	507.9549	65.62	465.2227
65.63	469.0622	65.63	376.2457
65.64	432.2157	65.64	490.6447
65.65	527.8262	65.65	526.2355
65.66	438.86	65.66	546.5731
65.67	526.7957	65.67	406.7521
65.68	486.0113	65.68	422.0053
65.69	467.8317	65.69	373.7035
65.7	429.6053	65.7	526.2355
65.71	420.1099	65.71	495.7291
65.72	413.5505	65.72	434.7163
65.73	487.0799	65.73	373.7035
65.74	427.7276	65.74	437.2585
65.75	389.2798	65.75	447.4273
65.76	448.2892	65.76	411.8365
65.77	423.164	65.77	371.1613
65.78	520.0781	65.78	419.4631
65.79	437.857	65.79	587.2483
65.8	447.7661	65.8	503.3557
65.81	452.4425	65.81	363.5347
65.82	375.0572	65.82	470.3071
65.83	403.8345	65.83	381.3301
65.84	423.3902	65.84	401.6677
65.85	489.8709	65.85	317.7751
65.86	512.4526	65.86	394.0411
65.87	520.8181	65.87	388.9567
65.88	422.1897	65.88	315.2329
65.89	431.6032	65.89	589.7905
65.9	465.7794	65.9	363.5347
65.91	394.4429	65.91	343.1971
65.92	523.5309	65.92	399.1255
65.93	429.5306	65.93	335.5705
65.94	412.3428	65.94	396.5833
65.95	366.3199	65.95	513.5245
65.96	440.7055	65.96	386.4145
65.97	494.843	65.97	419.4631
65.98	467.0755	65.98	569.4529
65.99	409.9621	65.99	394.0411
66	457.5039	66	508.4401
66.01	431.0214	66.01	333.0283
66.02	428.3197	66.02	358.4503
66.03	519.6788	66.03	561.8263
66.04	446.17	66.04	536.4043
66.05	499.8806	66.05	528.7777
66.06	500.5006	66.06	582.1639
66.07	455.1754	66.07	483.0181
66.08	481.7086	66.08	360.9925
66.09	507.8193	66.09	470.3071
66.1	417.7426	66.1	345.7393
66.11	345.1937	66.11	289.8109
66.12	379.1643	66.12	338.1127
66.13	486.0681	66.13	452.5117
66.14	464.1914	66.14	556.7419
66.15	444.4133	66.15	409.2943
66.16	361.8784	66.16	475.3915
66.17	454.8498	66.17	310.1485
66.18	494.5948	66.18	320.3173
66.19	404.9332	66.19	343.1971
66.2	434.4055	66.2	434.7163
66.21	425.6163	66.21	429.6319
66.22	352.8736	66.22	391.4989
66.23	399.9068	66.23	457.5961
66.24	396.982	66.24	378.7879
66.25	475.7291	66.25	383.8723
66.26	405.9806	66.26	564.3685
66.27	480.733	66.27	429.6319
66.28	504.5752	66.28	353.3659
66.29	492.4332	66.29	505.8979
66.3	516.8503	66.3	279.6421
66.31	411.4576	66.31	457.5961
66.32	388.8359	66.32	399.1255
66.33	441.8516	66.33	546.5731
66.34	405.4019	66.34	533.8621
66.35	426.5499	66.35	350.8237
66.36	404.3407	66.36	343.1971
66.37	351.9687	66.37	416.9209
66.38	329.3308	66.38	551.6575
66.39	373.0655	66.39	373.7035
66.4	462.2041	66.4	434.7163
66.41	410.3927	66.41	429.6319
66.42	396.614	66.42	355.9081
66.43	458.0826	66.43	310.1485
66.44	466.5368	66.44	536.4043
66.45	435.9628	66.45	320.3173
66.46	488.1599	66.46	622.8391
66.47	426.4449	66.47	582.1639
66.48	472.715	66.48	444.8851
66.49	424.3051	66.49	569.4529
66.5	585.5059	66.5	483.0181
66.51	504.6252	66.51	556.7419
66.52	452.3857	66.52	409.2943
66.53	451.262	66.53	439.8007
66.54	491.9545	66.54	554.1997
66.55	408.3685	66.55	462.6805
66.56	408.251	66.56	714.3584
66.57	397.6613	66.57	414.3787
66.58	349.4946	66.58	383.8723
66.59	373.6217	66.59	528.7777
66.6	391.4019	66.6	477.9337
66.61	360.2548	66.61	521.1511
66.62	415.2041	66.62	510.9823
66.63	369.2627	66.63	490.6447
66.64	440.903	66.64	523.6933
66.65	393.7923	66.65	528.7777
66.66	387.291	66.66	404.2099
66.67	445.6175	66.67	368.6191
66.68	422.1559	66.68	597.4171
66.69	432.6987	66.69	577.0795
66.7	381.1297	66.7	338.1127
66.71	417.5089	66.71	340.6549
66.72	480.21	66.72	559.2841
66.73	454.3899	66.73	340.6549
66.74	455.1954	66.74	376.2457
66.75	404.97	66.75	510.9823
66.76	419.7874	66.76	386.4145
66.77	322.3483	66.77	490.6447
66.78	457.8151	66.78	544.0309
66.79	424.5032	66.79	513.5245
66.8	417.7395	66.8	437.2585
66.81	402.1615	66.81	516.0667
66.82	386.1911	66.82	493.1869
66.83	472.0938	66.83	292.3531
66.84	430.3665	66.84	477.9337
66.85	451.307	66.85	294.8953
66.86	383.1214	66.86	371.1613
66.87	416.4165	66.87	333.0283
66.88	348.2334	66.88	574.5373
66.89	315.5246	66.89	485.5603
66.9	356.6651	66.9	396.5833
66.91	345.6599	66.91	315.2329
66.92	390.2139	66.92	429.6319
66.93	528.3386	66.93	518.6089
66.94	507.4293	66.94	439.8007
66.95	478.117	66.95	355.9081
66.96	479.815	66.96	363.5347
66.97	463.4465	66.97	472.8493
66.98	425.4481	66.98	399.1255
66.99	405.2575	66.99	333.0283
67	430.7726	67	272.0154
67.01	443.3971	67.01	246.5935
67.02	412.045	67.02	208.4604
67.03	406.2287	67.03	310.1485
67.04	426.0544	67.04	414.3787
67.05	477.6446	67.05	320.3173
67.06	467.753	67.06	589.7905
67.07	398.4632	67.07	434.7163
67.08	318.5743	67.08	388.9567
67.09	391.1851	67.09	422.0053
67.1	439.83	67.1	409.2943
67.11	420.568	67.11	371.1613
67.12	441.7154	67.12	366.0769
67.13	374.4048	67.13	490.6447
67.14	324.2469	67.14	508.4401
67.15	451.3476	67.15	579.6217
67.16	421.9772	67.16	483.0181
67.17	380.1598	67.17	449.9695
67.18	469.4747	67.18	465.2227
67.19	402.4634	67.19	538.9465
67.2	366.8986	67.2	335.5705
67.21	508.5511	67.21	500.8135
67.22	471.9113	67.22	493.1869
67.23	512.022	67.23	470.3071
67.24	399.6368	67.24	521.1511
67.25	470.3003	67.25	422.0053
67.26	499.7863	67.26	460.1383
67.27	358.6749	67.27	467.7649
67.28	292.2399	67.28	360.9925
67.29	469.6909	67.29	434.7163
67.3	374.701	67.3	394.0411
67.31	450.952	67.31	439.8007
67.32	375.4247	67.32	322.8595
67.33	439.8812	67.33	322.8595
67.34	396.4389	67.34	360.9925
67.35	466.2813	67.35	437.2585
67.36	429.1697	67.36	429.6319
67.37	471.1595	67.37	355.9081
67.38	419.2869	67.38	399.1255
67.39	399.4843	67.39	602.5015
67.4	386.8024	67.4	488.1025
67.41	483.4084	67.41	556.7419
67.42	388.0191	67.42	391.4989
67.43	502.9729	67.43	366.0769
67.44	523.4778	67.44	508.4401
67.45	478.487	67.45	422.0053
67.46	463.2378	67.46	406.7521
67.47	424.0164	67.47	531.3199
67.48	461.5567	67.48	353.3659
67.49	389.8571	67.49	432.1741
67.5	451.707	67.5	554.1997
67.51	489.1997	67.51	480.4759
67.52	451.7938	67.52	378.7879
67.53	544.504	67.53	490.6447
67.54	440.233	67.54	490.6447
67.55	374.8641	67.55	523.6933
67.56	462.0016	67.56	457.5961
67.57	478.867	67.57	411.8365
67.58	458.7163	67.58	406.7521
67.59	415.9128	67.59	299.9797
67.6	354.8572	67.6	427.0897
67.61	441.6104	67.61	554.1997
67.62	463.8315	67.62	462.6805
67.63	486.0606	67.63	571.9951
67.64	450.9583	67.64	518.6089
67.65	494.3087	67.65	472.8493
67.66	406.5405	67.66	360.9925
67.67	389.1046	67.67	310.1485
67.68	366.5822	67.68	483.0181
67.69	365.455	67.69	455.0539
67.7	388.5266	67.7	518.6089
67.71	443.6421	67.71	297.4375
67.72	379.218	67.72	424.5475
67.73	444.172	67.73	411.8365
67.74	435.9909	67.74	442.3429
67.75	469.1785	67.75	340.6549
67.76	466.3318	67.76	449.9695
67.77	412.7762	67.77	378.7879
67.78	381.1053	67.78	455.0539
67.79	433.6236	67.79	325.4016
67.8	440.0293	67.8	429.6319
67.81	499.132	67.81	571.9951
67.82	441.9591	67.82	465.2227
67.83	339.2061	67.83	429.6319
67.84	420.7305	67.84	462.6805
67.85	406.1212	67.85	592.3327
67.86	389.1671	67.86	503.3557
67.87	399.713	67.87	292.3531
67.88	409.0147	67.88	566.9107
67.89	408.4047	67.89	449.9695
67.9	433.3749	67.9	427.0897
67.91	410.0739	67.91	480.4759
67.92	431.7063	67.92	523.6933
67.93	458.5613	67.93	457.5961
67.94	459.1388	67.94	536.4043
67.95	390.3307	67.95	549.1153
67.96	476.0985	67.96	335.5705
67.97	375.5996	67.97	322.8595
67.98	361.2247	67.98	414.3787
67.99	331.8955	67.99	498.2713
68	324.9943	68	419.4631
68.01	415.3266	68.01	442.3429
68.02	406.8936	68.02	607.5859
68.03	417.4583	68.03	594.8749
68.04	427.5567	68.04	394.0411
68.05	347.9509	68.05	633.0079
68.06	386.3211	68.06	546.5731
68.07	336.3752	68.07	226.2559
68.08	384.3301	68.08	378.7879
68.09	439.155	68.09	388.9567
68.1	376.2714	68.1	439.8007
68.11	401.9316	68.11	394.0411
68.12	394.0223	68.12	475.3915
68.13	364.8656	68.13	541.4887
68.14	415.5778	68.14	299.9797
68.15	486.2519	68.15	442.3429
68.16	468.4448	68.16	396.5833
68.17	405.3438	68.17	528.7777
68.18	458.3932	68.18	335.5705
68.19	398.1194	68.19	465.2227
68.2	432.7275	68.2	416.9209
68.21	494.9386	68.21	460.1383
68.22	400.7448	68.22	467.7649
68.23	402.0409	68.23	449.9695
68.24	371.6722	68.24	447.4273
68.25	435.8428	68.25	394.0411
68.26	445.9253	68.26	386.4145
68.27	400.3067	68.27	386.4145
68.28	502.4941	68.28	510.9823
68.29	477.1659	68.29	404.2099
68.3	480.0424	68.3	422.0053
68.31	439.9624	68.31	391.4989
68.32	411.9069	68.32	368.6191
68.33	438.9425	68.33	455.0539
68.34	343.737	68.34	449.9695
68.35	437.802	68.35	483.0181
68.36	448.1198	68.36	310.1485
68.37	513.3719	68.37	409.2943
68.38	436.6146	68.38	462.6805
68.39	425.4444	68.39	449.9695
68.4	384.4819	68.4	500.8135
68.41	342.5171	68.41	437.2585
68.42	420.078	68.42	355.9081
68.43	433.2943	68.43	434.7163
68.44	456.7909	68.44	429.6319
68.45	414.8591	68.45	355.9081
68.46	430.4602	68.46	327.9439
68.47	414.5642	68.47	147.4476
68.48	603.413	68.48	353.3659
68.49	499.5175	68.49	457.5961
68.5	515.6448	68.5	467.7649
68.51	502.4873	68.51	414.3787
68.52	351.2644	68.52	442.3429
68.53	335.4808	68.53	411.8365
68.54	334.1216	68.54	477.9337
68.55	410.9445	68.55	470.3071
68.56	363.6382	68.56	432.1741
68.57	378.0457	68.57	373.7035
68.58	394.4366	68.58	455.0539
68.59	410.2202	68.59	521.1511
68.6	353.3423	68.6	422.0053
68.61	442.9715	68.61	566.9107
68.62	393.0918	68.62	571.9951
68.63	462.4385	68.63	409.2943
68.64	530.3103	68.64	510.9823
68.65	449.714	68.65	422.0053
68.66	411.247	68.66	442.3429
68.67	441.2585	68.67	518.6089
68.68	383.0271	68.68	528.7777
68.69	426.4962	68.69	333.0283
68.7	363.9957	68.7	429.6319
68.71	372.145	68.71	429.6319
68.72	438.6257	68.72	444.8851
68.73	356.9957	68.73	305.0641
68.74	362.4677	68.74	338.1127
68.75	446.3612	68.75	434.7163
68.76	455.6416	68.76	500.8135
68.77	359.5836	68.77	455.0539
68.78	413.0568	68.78	429.6319
68.79	358.0537	68.79	480.4759
68.8	417.2358	68.8	381.3301
68.81	403.6077	68.81	366.0769
68.82	331.2744	68.82	366.0769
68.83	386.5843	68.83	383.8723
68.84	423.3083	68.84	528.7777
68.85	424.4276	68.85	460.1383
68.86	366.5174	68.86	447.4273
68.87	398.3351	68.87	358.4503
68.88	457.3733	68.88	345.7393
68.89	388.7765	68.89	345.7393
68.9	396.1458	68.9	327.9439
68.91	416.2628	68.91	485.5603
68.92	571.3403	68.92	383.8723
68.93	428.226	68.93	419.4631
68.94	445.7506	68.94	444.8851
68.95	440.7092	68.95	411.8365
68.96	425.1719	68.96	406.7521
68.97	451.427	68.97	442.3429
68.98	400.8173	68.98	394.0411
68.99	404.2807	68.99	510.9823
69	379.7311	69	493.1869
69.01	433.1474	69.01	612.6703
69.02	386.8286	69.02	577.0795
69.03	397.4389	69.03	462.6805
69.04	386.183	69.04	411.8365
69.05	445.0526	69.05	442.3429
69.06	355.8914	69.06	358.4503
69.07	459.6244	69.07	399.1255
69.08	437.2783	69.08	442.3429
69.09	530.8727	69.09	571.9951
69.1	440.3218	69.1	483.0181
69.11	381.1223	69.11	343.1971
69.12	399.5018	69.12	343.1971
69.13	332.5355	69.13	381.3301
69.14	327.9697	69.14	475.3915
69.15	364.9725	69.15	452.5117
69.16	428.5453	69.16	376.2457
69.17	396.8808	69.17	437.2585
69.18	372.433	69.18	429.6319
69.19	400.6323	69.19	480.4759
69.2	388.7616	69.2	434.7163
69.21	325.3812	69.21	427.0897
69.22	385.8368	69.22	391.4989
69.23	439.3862	69.23	475.3915
69.24	372.7168	69.24	363.5347
69.25	333.4973	69.25	416.9209
69.26	338.0781	69.26	320.3173
69.27	350.9163	69.27	394.0411
69.28	358.7168	69.28	424.5475
69.29	507.1287	69.29	427.0897
69.3	392.9637	69.3	533.8621
69.31	345.1456	69.31	638.0923
69.32	521.1893	69.32	330.4861
69.33	380.3498	69.33	373.7035
69.34	350.3426	69.34	457.5961
69.35	332.7086	69.35	610.1281
69.36	377.157	69.36	434.7163
69.37	360.5423	69.37	531.3199
69.38	380.7773	69.38	264.3889
69.39	364.2644	69.39	312.6907
69.4	337.8644	69.4	467.7649
69.41	287.2315	69.41	416.9209
69.42	330.6569	69.42	406.7521
69.43	403.9733	69.43	353.3659
69.44	430.4633	69.44	292.3531
69.45	395.8153	69.45	195.7494
69.46	401.7285	69.46	272.0154
69.47	409.5871	69.47	320.3173
69.48	400.2386	69.48	378.7879
69.49	380.0349	69.49	368.6191
69.5	358.7168	69.5	383.8723
69.51	391.5912	69.51	528.7777
69.52	399.7099	69.52	549.1153
69.53	350.567	69.53	406.7521
69.54	380.8829	69.54	546.5731
69.55	393.2418	69.55	480.4759
69.56	376.5852	69.56	556.7419
69.57	342.752	69.57	391.4989
69.58	365.1519	69.58	544.0309
69.59	397.1126	69.59	409.2943
69.6	406.2393	69.6	404.2099
69.61	384.485	69.61	406.7521
69.62	400.6842	69.62	442.3429
69.63	450.4565	69.63	465.2227
69.64	360.3692	69.64	343.1971
69.65	431.3232	69.65	307.6063
69.66	381.8541	69.66	376.2457
69.67	405.1832	69.67	457.5961
69.68	387.4704	69.68	343.1971
69.69	427.7042	69.69	343.1971
69.7	382.2709	69.7	345.7393
69.71	378.1369	69.71	327.9439
69.72	374.7972	69.72	449.9695
69.73	446.2537	69.73	325.4016
69.74	505.4308	69.74	394.0411
69.75	434.5379	69.75	406.7521
69.76	478.8745	69.76	282.1843
69.77	389.4702	69.77	282.1843
69.78	410.617	69.78	391.4989
69.79	317.455	69.79	584.7061
69.8	376.7552	69.8	289.8109
69.81	475.6698	69.81	457.5961
69.82	478.6332	69.82	452.5117
69.83	366.5755	69.83	554.1997
69.84	435.1623	69.84	444.8851
69.85	423.174	69.85	480.4759
69.86	403.6164	69.86	310.1485
69.87	496.6103	69.87	320.3173
69.88	416.8365	69.88	378.7879
69.89	427.2099	69.89	457.5961
69.9	549.5404	69.9	254.22
69.91	434.2723	69.91	437.2585
69.92	395.5553	69.92	503.3557
69.93	401.0754	69.93	561.8263
69.94	357.4119	69.94	569.4529
69.95	426.6749	69.95	462.6805
69.96	377.382	69.96	429.6319
69.97	433.0737	69.97	480.4759
69.98	377.3463	69.98	381.3301
69.99	412.1112	69.99	366.0769
70	444.4145	70	401.6677
70.01	384.1938	70.01	442.3429
70.02	394.5741	70.02	447.4273
70.03	439.6012	70.03	358.4503
70.04	335.4721	70.04	381.3301
70.05	387.8116	70.05	599.9594
70.06	371.6	70.06	434.7163
70.07	432.9312	70.07	424.5475
70.08	396.9958	70.08	427.0897
70.09	391.9125	70.09	569.4529
70.1	344.2475	70.1	376.2457
70.11	418.905	70.11	434.7163
70.12	437.4908	70.12	411.8365
70.13	402.9315	70.13	406.7521
70.14	443.9014	70.14	335.5705
70.15	396.7696	70.15	396.5833
70.16	368.6534	70.16	353.3659
70.17	364.7688	70.17	345.7393
70.18	387.4154	70.18	559.2841
70.19	340.3716	70.19	536.4043
70.2	379.9805	70.2	475.3915
70.21	376.3402	70.21	218.6292
70.22	374.141	70.22	467.7649
70.23	379.2149	70.23	633.0079
70.24	404.2907	70.24	419.4631
70.25	388.6947	70.25	510.9823
70.26	371.2401	70.26	439.8007
70.27	406.2737	70.27	320.3173
70.28	387.4485	70.28	287.2686
70.29	338.5756	70.29	409.2943
70.3	443.3278	70.3	587.2483
70.31	476.1491	70.31	432.1741
70.32	414.3679	70.32	335.5705
70.33	354.5591	70.33	414.3787
70.34	301.9908	70.34	480.4759
70.35	422.0447	70.35	381.3301
70.36	360.8004	70.36	348.2815
70.37	323.3314	70.37	523.6933
70.38	359.838	70.38	371.1613
70.39	368.2434	70.39	363.5347
70.4	403.2908	70.4	401.6677
70.41	407.1236	70.41	335.5705
70.42	310.9031	70.42	521.1511
70.43	405.3725	70.43	282.1843
70.44	355.1484	70.44	244.0512
70.45	474.9254	70.45	368.6191
70.46	450.294	70.46	350.8237
70.47	437.5876	70.47	505.8979
70.48	448.0954	70.48	439.8007
70.49	327.2329	70.49	213.5448
70.5	466.6462	70.5	627.9235
70.51	445.7906	70.51	371.1613
70.52	381.6328	70.52	378.7879
70.53	282.1145	70.53	404.2099
70.54	379.1962	70.54	638.0923
70.55	481.7473	70.55	493.1869
70.56	429.2722	70.56	343.1971
70.57	315.1271	70.57	432.1741
70.58	367.736	70.58	394.0411
70.59	358.7262	70.59	261.8466
70.6	336.0658	70.6	457.5961
70.61	333.3442	70.61	452.5117
70.62	340.0567	70.62	358.4503
70.63	424.2726	70.63	559.2841
70.64	375.8846	70.64	500.8135
70.65	395.9321	70.65	416.9209
70.66	418.5	70.66	353.3659
70.67	440.7123	70.67	381.3301
70.68	429.8421	70.68	315.2329
70.69	422.539	70.69	322.8595
70.7	398.4056	70.7	360.9925
70.71	412.6256	70.71	383.8723
70.72	358.7287	70.72	439.8007
70.73	345.5461	70.73	465.2227
70.74	303.3138	70.74	343.1971
70.75	399.5062	70.75	485.5603
70.76	452.865	70.76	348.2815
70.77	419.3293	70.77	289.8109
70.78	360.5498	70.78	480.4759
70.79	365.7149	70.79	419.4631
70.8	373.4717	70.8	495.7291
70.81	406.0424	70.81	294.8953
70.82	385.7587	70.82	335.5705
70.83	462.1266	70.83	399.1255
70.84	384.8725	70.84	424.5475
70.85	411.0345	70.85	391.4989
70.86	373.3817	70.86	457.5961
70.87	372.9349	70.87	272.0154
70.88	369.3408	70.88	368.6191
70.89	371.1194	70.89	493.1869
70.9	435.8828	70.9	401.6677
70.91	388.4672	70.91	475.3915
70.92	400.6605	70.92	399.1255
70.93	403.6971	70.93	404.2099
70.94	335.3284	70.94	371.1613
70.95	426.7943	70.95	312.6907
70.96	309.0258	70.96	554.1997
70.97	431.3645	70.97	394.0411
70.98	337.4375	70.98	401.6677
70.99	360.7323	70.99	388.9567
71	399.7068	71	315.2329
71.01	386.3286	71.01	465.2227
71.02	377.4807	71.02	523.6933
71.03	363.8089	71.03	457.5961
71.04	424.9813	71.04	340.6549
71.05	406.1156	71.05	449.9695
71.06	330.9538	71.06	360.9925
71.07	370.5451	71.07	399.1255
71.08	358.705	71.08	424.5475
71.09	388.8415	71.09	302.5219
71.1	351.1081	71.1	391.4989
71.11	421.2629	71.11	531.3199
71.12	411.2663	71.12	317.7751
71.13	440.0724	71.13	338.1127
71.14	349.952	71.14	363.5347
71.15	445.1576	71.15	348.2815
71.16	421.2635	71.16	256.7623
71.17	392.4637	71.17	350.8237
71.18	333.3104	71.18	312.6907
71.19	364.2157	71.19	376.2457
71.2	432.2025	71.2	386.4145
71.21	360.3385	71.21	493.1869
71.22	353.3192	71.22	455.0539
71.23	427.6217	71.23	358.4503
71.24	387.9166	71.24	470.3071
71.25	369.5196	71.25	452.5117
71.26	416.9171	71.26	500.8135
71.27	395.5353	71.27	490.6447
71.28	355.7415	71.28	310.1485
71.29	355.7159	71.29	338.1127
71.3	336.7745	71.3	345.7393
71.31	355.1678	71.31	363.5347
71.32	389.464	71.32	401.6677
71.33	373.6167	71.33	371.1613
71.34	386.1812	71.34	383.8723
71.35	439.7406	71.35	279.6421
71.36	460.2037	71.36	549.1153
71.37	412.3144	71.37	411.8365
71.38	416.7002	71.38	226.2559
71.39	393.323	71.39	434.7163
71.4	408.2491	71.4	485.5603
71.41	436.6121	71.41	416.9209
71.42	381.3678	71.42	282.1843
71.43	385.9799	71.43	371.1613
71.44	447.1161	71.44	510.9823
71.45	379.3668	71.45	475.3915
71.46	341.8071	71.46	396.5833
71.47	340.1092	71.47	315.2329
71.48	363.0227	71.48	465.2227
71.49	368.749	71.49	292.3531
71.5	308.0971	71.5	460.1383
71.51	277.3493	71.51	274.5576
71.52	368.0066	71.52	226.2559
71.53	363.7163	71.53	294.8953
71.54	392.8949	71.54	269.4732
71.55	366.638	71.55	442.3429
71.56	410.1558	71.56	360.9925
71.57	442.0841	71.57	327.9439
71.58	372.6774	71.58	396.5833
71.59	326.4423	71.59	495.7291
71.6	411.795	71.6	401.6677
71.61	314.9902	71.61	475.3915
71.62	411.925	71.62	376.8812
71.63	376.4571	71.63	329.8505
71.64	387.7304	71.64	272.0154
71.65	321.1522	71.65	388.9567
71.66	436.194	71.66	477.9337
71.67	406.9299	71.67	327.9439
71.68	375.0528	71.68	322.8595
71.69	364.3382	71.69	396.5833
71.7	392.7193	71.7	442.3429
71.71	451.3045	71.71	394.0411
71.72	389.3471	71.72	528.7777
71.73	316.7238	71.73	406.7521
71.74	289.2989	71.74	457.5961
71.75	402.1003	71.75	307.6063
71.76	385.3706	71.76	409.2943
71.77	388.5216	71.77	373.7035
71.78	397.3607	71.78	383.8723
71.79	545.8596	71.79	297.4375
71.8	363.7476	71.8	409.2943
71.81	372.7286	71.81	444.8851
71.82	366.9173	71.82	394.0411
71.83	358.7168	71.83	386.4145
71.84	364.3882	71.84	386.4145
71.85	381.4366	71.85	493.1869
71.86	379.3162	71.86	330.4861
71.87	354.8703	71.87	429.6319
71.88	363.2945	71.88	411.8365
71.89	373.9267	71.89	246.5935
71.9	380.8123	71.9	312.6907
71.91	386.8005	71.91	289.8109
71.92	414.9304	71.92	391.4989
71.93	358.1313	71.93	388.9567
71.94	329.5658	71.94	386.4145
71.95	356.3008	71.95	546.5731
71.96	369.8564	71.96	320.3173
71.97	387.5304	71.97	409.2943
71.98	383.4445	71.98	373.7035
71.99	387.631	71.99	312.6907
72	321.0453	72	429.6319
72.01	307.4716	72.01	394.0411
72.02	339.598	72.02	493.1869
72.03	408.8553	72.03	419.4631
72.04	390.4951	72.04	353.3659
72.05	464.2839	72.05	238.9668
72.06	367.1273	72.06	401.6677
72.07	320.4497	72.07	355.9081
72.08	338.5374	72.08	381.3301
72.09	296.4807	72.09	315.2329
72.1	388.8053	72.1	305.0641
72.11	377.5976	72.11	358.4503
72.12	378.5056	72.12	383.8723
72.13	304.3681	72.13	333.0283
72.14	309.9201	72.14	254.22
72.15	373.1861	72.15	386.4145
72.16	401.5597	72.16	388.9567
72.17	366.3255	72.17	493.1869
72.18	354.3297	72.18	401.6677
72.19	404.4595	72.19	439.8007
72.2	343.7688	72.2	340.6549
72.21	455.9422	72.21	360.9925
72.22	397.0339	72.22	294.8953
72.23	334.1247	72.23	391.4989
72.24	320.5285	72.24	335.5705
72.25	386.1205	72.25	360.9925
72.26	441.1086	72.26	383.8723
72.27	415.1878	72.27	297.4375
72.28	482.7379	72.28	355.9081
72.29	455.8328	72.29	348.2815
72.3	393.7417	72.3	434.7163
72.31	360.7622	72.31	394.0411
72.32	347.4472	72.32	422.0053
72.33	437.4439	72.33	444.8851
72.34	407.996	72.34	322.8595
72.35	440.6674	72.35	429.6319
72.36	448.3354	72.36	305.0641
72.37	291.3793	72.37	373.7035
72.38	445.2545	72.38	333.0283
72.39	433.8318	72.39	289.8109
72.4	361.1972	72.4	480.4759
72.41	398.8931	72.41	472.8493
72.42	430.4602	72.42	432.1741
72.43	456.0847	72.43	462.6805
72.44	466.4719	72.44	307.6063
72.45	367.0529	72.45	444.8851
72.46	364.3938	72.46	343.1971
72.47	403.4358	72.47	396.5833
72.48	412.1375	72.48	299.9797
72.49	442.1122	72.49	391.4989
72.5	448.4048	72.5	424.5475
72.51	362.0215	72.51	338.1127
72.52	367.8322	72.52	289.8109
72.53	297.7368	72.53	338.1127
72.54	340.1398	72.54	399.1255
72.55	356.7232	72.55	477.9337
72.56	404.8807	72.56	292.3531
72.57	410.1558	72.57	442.3429
72.58	391.6357	72.58	325.4016
72.59	443.0584	72.59	607.5859
72.6	375.2665	72.6	366.0769
72.61	351.9787	72.61	307.6063
72.62	317.3769	72.62	287.2686
72.63	311.9568	72.63	391.4989
72.64	305.423	72.64	371.1613
72.65	304.9911	72.65	366.0769
72.66	424.742	72.66	508.4401
72.67	360.9904	72.67	404.2099
72.68	389.059	72.68	510.9823
72.69	341.2909	72.69	333.0283
72.7	336.3282	72.7	358.4503
72.71	349.5645	72.71	437.2585
72.72	308.1452	72.72	447.4273
72.73	282.672	72.73	500.8135
72.74	271.7561	72.74	419.4631
72.75	388.6972	72.75	317.7751
72.76	439.1713	72.76	269.4732
72.77	320.2679	72.77	531.3199
72.78	317.1269	72.78	409.2943
72.79	379.3118	72.79	297.4375
72.8	363.8907	72.8	480.4759
72.81	354.6465	72.81	366.0769
72.82	333.2767	72.82	381.3301
72.83	289.7788	72.83	297.4375
72.84	395.8284	72.84	516.0667
72.85	391.2657	72.85	388.9567
72.86	398.8931	72.86	472.8493
72.87	357.6119	72.87	416.9209
72.88	311.8224	72.88	353.3659
72.89	378.3875	72.89	434.7163
72.9	401.5597	72.9	483.0181
72.91	417.1677	72.91	345.7393
72.92	404.3407	72.92	467.7649
72.93	438.5669	72.93	327.9439
72.94	313.931	72.94	233.8824
72.95	355.554	72.95	419.4631
72.96	303.0295	72.96	358.4503
72.97	279.9972	72.97	345.7393
72.98	305.1605	72.98	488.1025
72.99	346.1398	72.99	205.9182
73	387.8972	73	340.6549
73.01	365.8156	73.01	419.4631
73.02	394.4466	73.02	427.0897
73.03	401.2754	73.03	373.7035
73.04	366.8429	73.04	544.0309
73.05	360.7654	73.05	355.9081
73.06	407.8092	73.06	272.0154
73.07	349.2958	73.07	264.3889
73.08	267.2453	73.08	317.7751
73.09	322.8958	73.09	343.1971
73.1	313.3579	73.1	416.9209
73.11	360.3104	73.11	427.0897
73.12	364.8606	73.12	391.4989
73.13	361.2197	73.13	386.4145
73.14	343.5464	73.14	261.8466
73.15	363.3727	73.15	404.2099
73.16	341.8028	73.16	338.1127
73.17	392.6306	73.17	343.1971
73.18	359.4293	73.18	327.9439
73.19	294.5977	73.19	449.9695
73.2	324.0057	73.2	307.6063
73.21	394.0067	73.21	302.5219
73.22	381.769	73.22	345.1037
73.23	388.2172	73.23	381.9656
73.24	379.2149	73.24	510.9823
73.25	332.2212	73.25	422.0053
73.26	302.722	73.26	335.5705
73.27	343.7594	73.27	449.9695
73.28	331.4369	73.28	396.5833
73.29	327.3416	73.29	368.6191
73.3	370.662	73.3	366.0769
73.31	337.1463	73.31	419.4631
73.32	341.5922	73.32	284.7265
73.33	401.036	73.33	460.1383
73.34	408.0823	73.34	381.3301
73.35	378.48	73.35	490.6447
73.36	394.3479	73.36	330.4861
73.37	382.6602	73.37	305.0641
73.38	409.9621	73.38	340.6549
73.39	370.6726	73.39	363.5347
73.4	435.4285	73.4	366.0769
73.41	399.8968	73.41	401.6677
73.42	399.713	73.42	317.7751
73.43	433.6874	73.43	554.1997
73.44	431.3351	73.44	518.6089
73.45	487.2687	73.45	366.0769
73.46	291.0831	73.46	488.1025
73.47	342.009	73.47	366.0769
73.48	418.93	73.48	327.9439
73.49	423.1465	73.49	254.22
73.5	358.9699	73.5	279.6421
73.51	348.7259	73.51	409.2943
73.52	325.2824	73.52	320.3173
73.53	419.993	73.53	358.4503
73.54	337.9687	73.54	366.0769
73.55	340.4785	73.55	348.2815
73.56	424.867	73.56	238.9668
73.57	341.4909	73.57	455.0539
73.58	264.1262	73.58	238.9668
73.59	324.2481	73.59	327.9439
73.6	342.9214	73.6	274.5576
73.61	305.4411	73.61	335.5705
73.62	367.9072	73.62	399.1255
73.63	317.9225	73.63	371.1613
73.64	320.1973	73.64	401.6677
73.65	427.5429	73.65	282.1843
73.66	317.7412	73.66	335.5705
73.67	407.5048	73.67	327.9439
73.68	444.3926	73.68	414.3787
73.69	428.4885	73.69	231.3403
73.7	369.5939	73.7	452.5117
73.71	384.8219	73.71	363.5347
73.72	448.096	73.72	310.1485
73.73	410.907	73.73	340.6549
73.74	318.3793	73.74	327.9439
73.75	346.0923	73.75	396.5833
73.76	380.6304	73.76	335.5705
73.77	314.4765	73.77	325.4016
73.78	370.9594	73.78	254.22
73.79	267.3365	73.79	422.0053
73.8	357.9081	73.8	322.8595
73.81	403.119	73.81	394.0411
73.82	321.6246	73.82	388.9567
73.83	315.3683	73.83	315.2329
73.84	327.9697	73.84	269.4732
73.85	384.8707	73.85	406.7521
73.86	372.2456	73.86	391.4989
73.87	323.8725	73.87	510.9823
73.88	323.0089	73.88	404.2099
73.89	253.7265	73.89	422.0053
73.9	312.5724	73.9	462.6805
73.91	338.6743	73.91	449.9695
73.92	316.4301	73.92	394.0411
73.93	266.4753	73.93	493.1869
73.94	376.1889	73.94	294.8953
73.95	349.5958	73.95	442.3429
73.96	324.69	73.96	503.3557
73.97	398.7756	73.97	348.2815
73.98	370.1357	73.98	360.9925
73.99	352.6886	73.99	615.2125
74	372.2137	74	294.8953
74.01	416.9927	74.01	261.8466
74.02	294.9015	74.02	299.9797
74.03	329.2458	74.03	358.4503
74.04	387.5348	74.04	419.4631
74.05	377.985	74.05	320.3173
74.06	458.2901	74.06	340.6549
74.07	366.2236	74.07	238.9668
74.08	311.3187	74.08	348.2815
74.09	281.2527	74.09	419.4631
74.1	310.3101	74.1	302.5219
74.11	301.5733	74.11	249.1357
74.12	303.7488	74.12	350.8237
74.13	308.4515	74.13	383.8723
74.14	321.0784	74.14	226.2559
74.15	424.1801	74.15	327.9439
74.16	429.2097	74.16	345.7393
74.17	373.701	74.17	434.7163
74.18	325.6861	74.18	518.6089
74.19	390.4608	74.19	386.4145
74.2	394.1148	74.2	312.6907
74.21	341.879	74.21	376.2457
74.22	288.2546	74.22	333.0283
74.23	364.6212	74.23	307.6063
74.24	375.2665	74.24	251.6779
74.25	428.421	74.25	386.4145
74.26	333.7504	74.26	495.7291
74.27	300.6828	74.27	561.8263
74.28	344.3613	74.28	462.6805
74.29	311.7774	74.29	411.8365
74.3	370.6688	74.3	353.3659
74.31	348.0078	74.31	488.1025
74.32	383.9345	74.32	330.4861
74.33	306.6972	74.33	411.8365
74.34	285.083	74.34	444.8851
74.35	428.4041	74.35	411.8365
74.36	437.752	74.36	406.7521
74.37	318.1356	74.37	424.5475
74.38	342.5621	74.38	551.6575
74.39	406.2868	74.39	533.8621
74.4	403.3696	74.4	297.4375
74.41	401.2335	74.41	335.5705
74.42	341.734	74.42	381.3301
74.43	453.2793	74.43	457.5961
74.44	400.3348	74.44	360.9925
74.45	283.2013	74.45	416.9209
74.46	333.3386	74.46	338.1127
74.47	402.5184	74.47	343.1971
74.48	336.6095	74.48	238.9668
74.49	400.2948	74.49	437.2585
74.5	294.8065	74.5	307.6063
74.51	355.2496	74.51	427.0897
74.52	375.4921	74.52	394.0411
74.53	291.7118	74.53	333.0283
74.54	369.0346	74.54	307.6063
74.55	340.4579	74.55	429.6319
74.56	329.2927	74.56	269.4732
74.57	326.9735	74.57	564.3685
74.58	361.6053	74.58	414.3787
74.59	374.4241	74.59	404.2099
74.6	375.3146	74.6	495.7291
74.61	387.1385	74.61	472.8493
74.62	322.8939	74.62	307.6063
74.63	373.6373	74.63	391.4989
74.64	307.3372	74.64	388.9567
74.65	261.7289	74.65	315.2329
74.66	398.8618	74.66	429.6319
74.67	369.3565	74.67	358.4503
74.68	370.2445	74.68	363.5347
74.69	303.3776	74.69	419.4631
74.7	274.244	74.7	409.2943
74.71	353.3267	74.71	513.5245
74.72	340.6335	74.72	333.0283
74.73	363.3858	74.73	358.4503
74.74	390.2383	74.74	472.8493
74.75	370.0595	74.75	381.3301
74.76	264.4137	74.76	401.6677
74.77	349.1808	74.77	442.3429
74.78	387.4167	74.78	394.0411
74.79	323.9388	74.79	368.6191
74.8	329.652	74.8	366.0769
74.81	343.6826	74.81	437.2585
74.82	425.485	74.82	394.0411
74.83	342.3277	74.83	368.6191
74.84	342.3765	74.84	330.4861
74.85	336.8501	74.85	378.7879
74.86	375.834	74.86	337.4771
74.87	398.91	74.87	343.8326
74.88	296.4738	74.88	505.8979
74.89	315.9658	74.89	422.0053
74.9	336.8957	74.9	442.3429
74.91	381.9728	74.91	429.6319
74.92	383.787	74.92	373.7035
74.93	409.334	74.93	330.4861
74.94	275.2101	74.94	289.8109
74.95	288.3765	74.95	409.2943
74.96	372.1518	74.96	373.7035
74.97	388.141	74.97	330.4861
74.98	399.8255	74.98	254.22
74.99	320.5972	74.99	315.2329
75	402.5353	75	218.6292
75.01	340.1254	75.01	363.5347
75.02	392.3062	75.02	315.2329
75.03	312.2343	75.03	376.2457
75.04	365.8255	75.04	386.4145
75.05	324.2069	75.05	297.4375
75.06	355.5665	75.06	391.4989
75.07	375.704	75.07	264.3889
75.08	239.1185	75.08	457.5961
75.09	302.747	75.09	345.7393
75.1	371.0113	75.1	325.4016
75.11	345.3324	75.11	360.9925
75.12	361.5447	75.12	419.4631
75.13	300.4722	75.13	231.3403
75.14	251.4055	75.14	167.7852
75.15	315.1646	75.15	305.0641
75.16	331.7505	75.16	343.1971
75.17	380.7941	75.17	381.3301
75.18	377.1545	75.18	261.8466
75.19	419.5875	75.19	333.0283
75.2	412.29	75.2	274.5576
75.21	267.599	75.21	424.5475
75.22	271.4717	75.22	322.8595
75.23	276.39	75.23	358.4503
75.24	300.4409	75.24	419.4631
75.25	299.253	75.25	231.3403
75.26	362.3059	75.26	434.7163
75.27	333.0779	75.27	414.3787
75.28	409.1084	75.28	371.1613
75.29	410.9345	75.29	366.0769
75.3	358.838	75.3	455.0539
75.31	294.0309	75.31	289.8109
75.32	317.2982	75.32	460.1383
75.33	311.1768	75.33	238.9668
75.34	363.987	75.34	327.9439
75.35	348.2621	75.35	399.1255
75.36	321.6552	75.36	424.5475
75.37	371.002	75.37	409.2943
75.38	280.0291	75.38	228.798
75.39	256.6057	75.39	292.3531
75.4	323.0257	75.4	198.2916
75.41	391.7594	75.41	396.5833
75.42	365.5206	75.42	355.9081
75.43	338.2187	75.43	327.9439
75.44	371.5906	75.44	325.4016
75.45	380.9648	75.45	378.7879
75.46	375.2684	75.46	404.2099
75.47	314.5284	75.47	406.7521
75.48	361.6603	75.48	317.7751
75.49	323.9857	75.49	340.6549
75.5	384.705	75.5	292.3531
75.51	284.928	75.51	231.3403
75.52	333.9128	75.52	419.4631
75.53	392.2918	75.53	322.8595
75.54	361.1922	75.54	447.4273
75.55	379.0631	75.55	325.4016
75.56	448.4023	75.56	429.6319
75.57	322.892	75.57	394.0411
75.58	316.2101	75.58	333.0283
75.59	389.7108	75.59	307.6063
75.6	362.4046	75.6	376.2457
75.61	343.187	75.61	404.2099
75.62	442.7847	75.62	442.3429
75.63	355.0084	75.63	394.0411
75.64	389.6033	75.64	439.8007
75.65	395.9009	75.65	429.6319
75.66	360.6504	75.66	249.1357
75.67	387.981	75.67	401.6677
75.68	312.8461	75.68	231.3403
75.69	323.9094	75.69	203.376
75.7	376.4096	75.7	363.5347
75.71	373.0961	75.71	368.6191
75.72	351.8724	75.72	294.8953
75.73	280.5947	75.73	284.7265
75.74	419.3443	75.74	373.7035
75.75	446.6074	75.75	386.4145
75.76	330.1957	75.76	190.665
75.77	256.3632	75.77	287.2686
75.78	354.9959	75.78	554.1997
75.79	350.4495	75.79	447.4273
75.8	370.9626	75.8	266.9311
75.81	355.119	75.81	279.6421
75.82	281.6915	75.82	373.7035
75.83	367.0592	75.83	493.1869
75.84	330.7257	75.84	401.6677
75.85	418.4507	75.85	404.2099
75.86	335.5002	75.86	353.3659
75.87	378.5294	75.87	274.5576
75.88	319.2748	75.88	211.0026
75.89	365.1712	75.89	238.9668
75.9	375.0122	75.9	368.6191
75.91	346.0567	75.91	493.1869
75.92	250.0806	75.92	437.2585
75.93	272.0911	75.93	391.4989
75.94	351.2644	75.94	333.0283
75.95	444.8989	75.95	343.1971
75.96	395.0441	75.96	274.5576
75.97	358.2006	75.97	335.5705
75.98	346.5773	75.98	363.5347
75.99	342.6108	75.99	294.8953
76	366.9292	76	355.9081
76.01	360.9779	76.01	312.6907
76.02	316.0176	76.02	251.6779
76.03	331.225	76.03	368.6191
76.04	376.587	76.04	510.9823
76.05	354.6172	76.05	457.5961
76.06	375.1059	76.06	287.2686
76.07	301.0896	76.07	420.0987
76.08	269.7544	76.08	340.0193
76.09	306.0936	76.09	289.8109
76.1	336.1689	76.1	338.1127
76.11	358.7168	76.11	345.7393
76.12	309.0933	76.12	452.5117
76.13	260.6378	76.13	378.7879
76.14	355.2009	76.14	259.3044
76.15	330.5701	76.15	404.2099
76.16	329.517	76.16	320.3173
76.17	350.5863	76.17	340.6549
76.18	318.0631	76.18	274.5576
76.19	370.5276	76.19	442.3429
76.2	316.7269	76.2	325.4016
76.21	336.4557	76.21	322.8595
76.22	278.2399	76.22	254.22
76.23	284.8762	76.23	368.6191
76.24	328.0565	76.24	226.2559
76.25	354.4966	76.25	399.1255
76.26	342.2796	76.26	391.4989
76.27	354.4203	76.27	315.2329
76.28	321.8508	76.28	322.8595
76.29	361.111	76.29	254.22
76.3	330.0089	76.3	155.0742
76.31	404.6344	76.31	355.9081
76.32	390.0058	76.32	368.6191
76.33	358.7199	76.33	294.8953
76.34	330.45	76.34	249.1357
76.35	349.7177	76.35	368.6191
76.36	341.4122	76.36	333.0283
76.37	323.2501	76.37	289.8109
76.38	331.0419	76.38	427.0897
76.39	367.8722	76.39	322.8595
76.4	319.8454	76.4	269.4732
76.41	269.6519	76.41	246.5935
76.42	309.7276	76.42	404.2099
76.43	295.2071	76.43	480.4759
76.44	260.6515	76.44	363.5347
76.45	298.0174	76.45	185.5806
76.46	331.4006	76.46	251.6779
76.47	332.0786	76.47	388.9567
76.48	332.1274	76.48	264.3889
76.49	277.7768	76.49	279.6421
76.5	342.5833	76.5	284.7265
76.51	361.0529	76.51	338.1127
76.52	326.0248	76.52	345.7393
76.53	377.8194	76.53	381.3301
76.54	236.8537	76.54	386.4145
76.55	407.2473	76.55	457.5961
76.56	400.3417	76.56	325.4016
76.57	332.3205	76.57	287.2686
76.58	258.7323	76.58	284.7265
76.59	280.6353	76.59	249.1357
76.6	268.6676	76.6	368.6191
76.61	243.0019	76.61	279.6421
76.62	274.8489	76.62	246.5935
76.63	307.0829	76.63	315.2329
76.64	328.6371	76.64	236.4247
76.65	292.3255	76.65	472.8493
76.66	284.648	76.66	223.7136
76.67	294.2971	76.67	343.1971
76.68	421.7422	76.68	277.0999
76.69	324.4825	76.69	388.9567
76.7	270.3819	76.7	317.7751
76.71	227.2346	76.71	287.2686
76.72	312.393	76.72	409.2943
76.73	289.1551	76.73	373.7035
76.74	325.9149	76.74	294.8953
76.75	366.4855	76.75	266.9311
76.76	315.5333	76.76	353.3659
76.77	342.8595	76.77	312.6907
76.78	322.8958	76.78	322.8595
76.79	307.4716	76.79	325.4016
76.8	324.1888	76.8	307.6063
76.81	307.2303	76.81	322.8595
76.82	298.5911	76.82	325.4016
76.83	285.9529	76.83	343.1971
76.84	284.6456	76.84	221.1714
76.85	337.14	76.85	256.7623
76.86	328.729	76.86	282.1843
76.87	354.3466	76.87	266.9311
76.88	351.3894	76.88	282.1843
76.89	344.31	76.89	320.3173
76.9	312.6392	76.9	307.6063
76.91	263.6131	76.91	358.4503
76.92	352.1068	76.92	277.0999
76.93	386.6586	76.93	388.9567
76.94	316.2245	76.94	371.1613
76.95	294.1253	76.95	348.2815
76.96	297.8312	76.96	381.3301
76.97	234.6233	76.97	279.6421
76.98	334.1591	76.98	388.9567
76.99	317.6287	76.99	353.3659
77	364.1438	77	345.7393
77.01	345.9767	77.01	327.9439
77.02	274.0784	77.02	307.6063
77.03	280.9759	77.03	287.2686
77.04	330.1776	77.04	266.9311
77.05	352.6961	77.05	317.7751
77.06	301.5777	77.06	254.22
77.07	393.2536	77.07	297.4375
77.08	436.4646	77.08	216.087
77.09	339.078	77.09	274.5576
77.1	300.1416	77.1	213.5448
77.11	266.4335	77.11	185.5806
77.12	310.415	77.12	307.6063
77.13	262.0695	77.13	289.8109
77.14	257.9005	77.14	373.7035
77.15	321.8209	77.15	475.3915
77.16	325.4893	77.16	381.3301
77.17	379.0431	77.17	312.6907
77.18	318.8855	77.18	305.0641
77.19	343.0901	77.19	269.4732
77.2	296.7063	77.2	353.3659
77.21	343.5932	77.21	294.8953
77.22	318.6624	77.22	391.4989
77.23	336.3989	77.23	406.7521
77.24	331.655	77.24	282.1843
77.25	312.4398	77.25	282.1843
77.26	374.5341	77.26	391.4989
77.27	366.5942	77.27	317.7751
77.28	383.9832	77.28	233.8824
77.29	382.7302	77.29	277.0999
77.3	370.9963	77.3	231.3403
77.31	361.9928	77.31	348.2815
77.32	337.4881	77.32	312.6907
77.33	344.4131	77.33	233.8824
77.34	315.0271	77.34	419.4631
77.35	344.9625	77.35	376.2457
77.36	348.3459	77.36	366.0769
77.37	345.0762	77.37	437.2585
77.38	311.1768	77.38	429.6319
77.39	339.7661	77.39	320.3173
77.4	323.0476	77.4	251.6779
77.41	368.3972	77.41	315.2329
77.42	379.658	77.42	254.22
77.43	349.7908	77.43	261.8466
77.44	351.2144	77.44	371.1613
77.45	313.6797	77.45	333.0283
77.46	304.0512	77.46	289.8109
77.47	312.3686	77.47	355.9081
77.48	272.5042	77.48	419.4631
77.49	336.1245	77.49	355.9081
77.5	396.2915	77.5	434.7163
77.51	347.3297	77.51	358.4503
77.52	289.3257	77.52	363.5347
77.53	344.6731	77.53	330.4861
77.54	272.881	77.54	467.7649
77.55	372.4162	77.55	310.1485
77.56	377.1726	77.56	231.3403
77.57	390.1189	77.57	277.0999
77.58	366.9348	77.58	391.4989
77.59	375.1709	77.59	371.1613
77.6	368.8646	77.6	348.2815
77.61	327.7115	77.61	470.3071
77.62	376.2308	77.62	416.9209
77.63	358.435	77.63	317.7751
77.64	404.7457	77.64	394.0411
77.65	292.3111	77.65	353.3659
77.66	334.9534	77.66	221.1714
77.67	365.8299	77.67	363.5347
77.68	334.0397	77.68	439.8007
77.69	292.088	77.69	251.6779
77.7	320.9391	77.7	312.6907
77.71	352.6255	77.71	414.3787
77.72	351.7343	77.72	355.9081
77.73	250.0056	77.73	345.7393
77.74	312.8292	77.74	345.7393
77.75	344.8019	77.75	363.5347
77.76	380.078	77.76	348.2815
77.77	330.6069	77.77	292.3531
77.78	364.9406	77.78	231.3403
77.79	318.5874	77.79	437.2585
77.8	307.4716	77.8	343.1971
77.81	341.5934	77.81	343.1971
77.82	356.8582	77.82	310.1485
77.83	354.869	77.83	411.8365
77.84	339.8711	77.84	231.3403
77.85	313.7235	77.85	256.7623
77.86	315.3871	77.86	299.9797
77.87	328.1221	77.87	287.2686
77.88	341.1222	77.88	320.3173
77.89	301.8733	77.89	254.22
77.9	325.4749	77.9	439.8007
77.91	291.7543	77.91	396.5833
77.92	292.7742	77.92	279.6421
77.93	335.8664	77.93	495.7291
77.94	331.4806	77.94	422.0053
77.95	292.6761	77.95	228.798
77.96	309.9557	77.96	292.3531
77.97	346.4161	77.97	251.6779
77.98	288.7989	77.98	208.4604
77.99	330.3132	77.99	310.1485
78	257.2543	78	307.6063
78.01	220.5571	78.01	340.6549
78.02	312.0924	78.02	363.5347
78.03	316.9238	78.03	348.2815
78.04	348.9502	78.04	310.1485
78.05	333.4267	78.05	287.2686
78.06	339.2399	78.06	338.1127
78.07	279.6773	78.07	381.3301
78.08	395.9928	78.08	315.2329
78.09	391.3132	78.09	340.6549
78.1	344.595	78.1	221.1714
78.11	378.3244	78.11	345.7393
78.12	360.6504	78.12	241.509
78.13	295.0052	78.13	348.2815
78.14	353.8935	78.14	294.8953
78.15	405.4131	78.15	302.5219
78.16	231.3136	78.16	340.6549
78.17	297.2219	78.17	310.1485
78.18	374.3247	78.18	322.8595
78.19	340.2067	78.19	449.9695
78.2	281.9252	78.2	449.9695
78.21	247.5246	78.21	358.4503
78.22	356.7251	78.22	488.1025
78.23	289.2995	78.23	277.0999
78.24	284.4355	78.24	404.2099
78.25	285.3211	78.25	195.7494
78.26	284.4768	78.26	233.8824
78.27	305.4299	78.27	404.2099
78.28	316.4907	78.28	284.7265
78.29	283.5281	78.29	371.1613
78.3	287.9209	78.3	333.0283
78.31	322.3858	78.31	254.22
78.32	267.4597	78.32	386.4145
78.33	270.4218	78.33	299.9797
78.34	309.8657	78.34	355.9081
78.35	329.7251	78.35	330.4861
78.36	250.5393	78.36	396.5833
78.37	321.8933	78.37	388.9567
78.38	375.1178	78.38	368.6191
78.39	304.3362	78.39	348.2815
78.4	336.1408	78.4	203.376
78.41	376.5421	78.41	378.7879
78.42	353.896	78.42	371.1613
78.43	279.0223	78.43	294.8953
78.44	227.3696	78.44	302.5219
78.45	291.2337	78.45	340.6549
78.46	309.5232	78.46	238.9668
78.47	316.0789	78.47	152.532
78.48	375.9496	78.48	249.1357
78.49	364.33	78.49	424.5475
78.5	320.3485	78.5	340.6549
78.51	337.3988	78.51	325.4016
78.52	345.2493	78.52	343.1971
78.53	330.0001	78.53	345.7393
78.54	272.1911	78.54	238.9668
78.55	381.1541	78.55	312.6907
78.56	344.7837	78.56	325.4016
78.57	369.8264	78.57	343.1971
78.58	304.37	78.58	363.5347
78.59	417.3114	78.59	366.0769
78.6	304.5525	78.6	312.6907
78.61	356.1164	78.61	305.0641
78.62	292.5804	78.62	340.6549
78.63	251.2474	78.63	310.1485
78.64	271.1518	78.64	340.6549
78.65	344.0557	78.65	310.1485
78.66	311.7699	78.66	233.8824
78.67	306.4754	78.67	223.7136
78.68	343.9126	78.68	330.4861
78.69	382.0728	78.69	243.4157
78.7	406.0618	78.7	348.917
78.71	314.8784	78.71	277.0999
78.72	392.9199	78.72	317.7751
78.73	278.7711	78.73	343.1971
78.74	320.7128	78.74	505.8979
78.75	304.2794	78.75	226.2559
78.76	283.4625	78.76	325.4016
78.77	344.3588	78.77	327.9439
78.78	311.4006	78.78	378.7879
78.79	395.6065	78.79	297.4375
78.8	347.4854	78.8	302.5219
78.81	312.518	78.81	305.0641
78.82	313.7372	78.82	287.2686
78.83	312.7986	78.83	338.1127
78.84	352.0562	78.84	327.9439
78.85	300.2066	78.85	449.9695
78.86	338.9018	78.86	467.7649
78.87	317.2632	78.87	432.1741
78.88	351.3438	78.88	338.1127
78.89	412.6024	78.89	272.0154
78.9	246.6347	78.9	317.7751
78.91	317.4225	78.91	325.4016
78.92	339.8467	78.92	289.8109
78.93	330.5944	78.93	302.5219
78.94	284.7493	78.94	287.2686
78.95	289.7294	78.95	409.2943
78.96	366.2099	78.96	391.4989
78.97	380.4448	78.97	333.0283
78.98	322.4708	78.98	307.6063
78.99	252.8585	78.99	251.6779
79	313.7241	79	279.6421
79.01	327.1185	79.01	391.4989
79.02	315.1202	79.02	371.1613
79.03	380.7623	79.03	419.4631
79.04	343.9682	79.04	444.8851
79.05	286.5623	79.05	287.2686
79.06	279.2779	79.06	353.3659
79.07	292.9242	79.07	401.6677
79.08	388.5766	79.08	388.9567
79.09	327.9834	79.09	386.4145
79.1	329.6451	79.1	261.8466
79.11	369.4208	79.11	315.2329
79.12	282.7532	79.12	432.1741
79.13	356.4389	79.13	429.6319
79.14	391.1201	79.14	391.4989
79.15	395.2647	79.15	386.4145
79.16	395.7646	79.16	333.0283
79.17	313.0217	79.17	396.5833
79.18	273.5685	79.18	299.9797
79.19	315.0702	79.19	498.2713
79.2	317.7175	79.2	386.4145
79.21	353.756	79.21	294.8953
79.22	261.7883	79.22	284.7265
79.23	282.4133	79.23	355.9081
79.24	399.3081	79.24	277.0999
79.25	274.4015	79.25	246.5935
79.26	234.6345	79.26	297.4375
79.27	375.534	79.27	322.8595
79.28	425.6862	79.28	289.8109
79.29	367.7335	79.29	338.1127
79.3	345.5149	79.3	345.7393
79.31	358.5343	79.31	381.3301
79.32	429.1528	79.32	333.0283
79.33	346.5692	79.33	334.2993
79.34	340.5466	79.34	344.4681
79.35	305.2474	79.35	327.9439
79.36	342.7614	79.36	272.0154
79.37	299.3217	79.37	317.7751
79.38	300.9403	79.38	414.3787
79.39	365.1881	79.39	231.3403
79.4	287.2359	79.4	399.1255
79.41	330.4388	79.41	320.3173
79.42	342.219	79.42	394.0411
79.43	319.4542	79.43	317.7751
79.44	337.5907	79.44	429.6319
79.45	276.5582	79.45	429.6319
79.46	324.345	79.46	427.0897
79.47	353.1042	79.47	355.9081
79.48	290.2781	79.48	292.3531
79.49	267.5965	79.49	284.7265
79.5	259.741	79.5	373.7035
79.51	332.1624	79.51	261.8466
79.52	264.4818	79.52	279.6421
79.53	304.7156	79.53	338.1127
79.54	270.4063	79.54	327.9439
79.55	306.8935	79.55	289.8109
79.56	428.2266	79.56	266.9311
79.57	360.2292	79.57	211.0026
79.58	348.1841	79.58	238.9668
79.59	354.5141	79.59	279.6421
79.6	325.5586	79.6	231.3403
79.61	260.3265	79.61	241.509
79.62	372.7561	79.62	315.2329
79.63	366.9348	79.63	218.6292
79.64	341.8678	79.64	203.376
79.65	313.0011	79.65	274.5576
79.66	331.3	79.66	320.3173
79.67	244.3836	79.67	254.22
79.68	300.6272	79.68	404.2099
79.69	274.6696	79.69	373.7035
79.7	249.2619	79.7	223.7136
79.71	289.3014	79.71	274.5576
79.72	315.2333	79.72	373.7035
79.73	208.9163	79.73	422.0053
79.74	234.757	79.74	391.4989
79.75	310.0963	79.75	439.8007
79.76	346.4373	79.76	483.0181
79.77	383.3333	79.77	310.1485
79.78	314.7434	79.78	177.954
79.79	239.0585	79.79	251.6779
79.8	292.4723	79.8	228.798
79.81	317.3375	79.81	348.2815
79.82	229.11	79.82	330.4861
79.83	276.625	79.83	396.5833
79.84	289.5738	79.84	335.5705
79.85	215.8582	79.85	289.8109
79.86	347.8066	79.86	249.1357
79.87	319.4867	79.87	333.0283
79.88	338.5487	79.88	310.1485
79.89	312.4286	79.89	287.2686
79.9	312.7192	79.9	391.4989
79.91	302.0408	79.91	371.1613
79.92	286.5991	79.92	348.2815
79.93	380.2117	79.93	310.1485
79.94	320.4766	79.94	287.2686
79.95	302.2552	79.95	249.1357
79.96	298.3005	79.96	404.2099
79.97	338.9468	79.97	355.9081
79.98	266.4335	79.98	292.3531
79.99	233.9727	79.99	391.4989
80	207.2777	80	317.7751
	
